# Temperatura_=_20.0
# Concentracion g/m^3_=_10000.0
# C_Vs_to_Am_M_A/Vsm_=_116720831517.84952
# pendiente_HvsI_1/m_=_3716.3
# ordenada_HvsI_A/m_=_1297.0
# frecuencia_Hz_=_309671.816703108
# Promedio de 27 ciclos

Tiempo_(s)	Campo_(V.s)	Magnetizacion_(V.s)	Campo_(kA/m)	Magnetizacion_(A/m)
0.000000e+00	-7.610613e-09	-3.229565e-09	-4.213188e+01	-3.764156e+02
1.000000e-08	-7.607196e-09	-3.229866e-09	-4.211296e+01	-3.761091e+02
2.000000e-08	-7.601161e-09	-3.227809e-09	-4.207955e+01	-3.756601e+02
3.000000e-08	-7.592578e-09	-3.223266e-09	-4.203204e+01	-3.750690e+02
4.000000e-08	-7.581213e-09	-3.216545e-09	-4.196912e+01	-3.743358e+02
5.000000e-08	-7.566914e-09	-3.205353e-09	-4.188996e+01	-3.734609e+02
6.000000e-08	-7.549733e-09	-3.192806e-09	-4.179485e+01	-3.724446e+02
7.000000e-08	-7.530118e-09	-3.178441e-09	-4.168627e+01	-3.712872e+02
8.000000e-08	-7.508231e-09	-3.168902e-09	-4.156510e+01	-3.699893e+02
9.000000e-08	-7.483413e-09	-3.187207e-09	-4.142771e+01	-3.685512e+02
1.000000e-07	-7.455200e-09	-3.189402e-09	-4.127153e+01	-3.669736e+02
1.100000e-07	-7.423824e-09	-3.155653e-09	-4.109783e+01	-3.652571e+02
1.200000e-07	-7.389590e-09	-3.129016e-09	-4.090831e+01	-3.634022e+02
1.300000e-07	-7.353002e-09	-3.088397e-09	-4.070576e+01	-3.614098e+02
1.400000e-07	-7.314591e-09	-3.040630e-09	-4.049312e+01	-3.592805e+02
1.500000e-07	-7.273779e-09	-3.073930e-09	-4.026719e+01	-3.570151e+02
1.600000e-07	-7.230085e-09	-3.056439e-09	-4.002530e+01	-3.546146e+02
1.700000e-07	-7.183827e-09	-3.005267e-09	-3.976922e+01	-3.520798e+02
1.800000e-07	-7.134525e-09	-3.042751e-09	-3.949629e+01	-3.494116e+02
1.900000e-07	-7.082112e-09	-2.984902e-09	-3.920613e+01	-3.466112e+02
2.000000e-07	-7.027269e-09	-2.930035e-09	-3.890252e+01	-3.436795e+02
2.100000e-07	-6.969656e-09	-2.935414e-09	-3.858358e+01	-3.406177e+02
2.200000e-07	-6.909222e-09	-2.867412e-09	-3.824903e+01	-3.374269e+02
2.300000e-07	-6.846211e-09	-2.853374e-09	-3.790020e+01	-3.341084e+02
2.400000e-07	-6.780422e-09	-2.852765e-09	-3.753600e+01	-3.306633e+02
2.500000e-07	-6.712051e-09	-2.814614e-09	-3.715750e+01	-3.270930e+02
2.600000e-07	-6.641192e-09	-2.800083e-09	-3.676523e+01	-3.233989e+02
2.700000e-07	-6.567622e-09	-2.733921e-09	-3.635795e+01	-3.195823e+02
2.800000e-07	-6.491233e-09	-2.685580e-09	-3.593507e+01	-3.156447e+02
2.900000e-07	-6.412020e-09	-2.661204e-09	-3.549655e+01	-3.115876e+02
3.000000e-07	-6.330194e-09	-2.633485e-09	-3.504356e+01	-3.074124e+02
3.100000e-07	-6.246093e-09	-2.610247e-09	-3.457799e+01	-3.031209e+02
3.200000e-07	-6.159865e-09	-2.567312e-09	-3.410063e+01	-2.987146e+02
3.300000e-07	-6.071404e-09	-2.531925e-09	-3.361092e+01	-2.941952e+02
3.400000e-07	-5.980642e-09	-2.475333e-09	-3.310847e+01	-2.895643e+02
3.500000e-07	-5.887620e-09	-2.433217e-09	-3.259350e+01	-2.848239e+02
3.600000e-07	-5.792370e-09	-2.393485e-09	-3.206621e+01	-2.799755e+02
3.700000e-07	-5.694916e-09	-2.334606e-09	-3.152671e+01	-2.750212e+02
3.800000e-07	-5.595235e-09	-2.309901e-09	-3.097488e+01	-2.699627e+02
3.900000e-07	-5.493450e-09	-2.275286e-09	-3.041140e+01	-2.648019e+02
4.000000e-07	-5.389644e-09	-2.227325e-09	-2.983674e+01	-2.595409e+02
4.100000e-07	-5.283759e-09	-2.173905e-09	-2.925057e+01	-2.541816e+02
4.200000e-07	-5.175891e-09	-2.110800e-09	-2.865342e+01	-2.487261e+02
4.300000e-07	-5.066139e-09	-2.066036e-09	-2.804584e+01	-2.431763e+02
4.400000e-07	-4.954465e-09	-2.024181e-09	-2.742762e+01	-2.375345e+02
4.500000e-07	-4.840698e-09	-1.982662e-09	-2.679781e+01	-2.318027e+02
4.600000e-07	-4.724841e-09	-1.929172e-09	-2.615643e+01	-2.259832e+02
4.700000e-07	-4.607139e-09	-1.873723e-09	-2.550485e+01	-2.200780e+02
4.800000e-07	-4.487721e-09	-1.823551e-09	-2.484375e+01	-2.140895e+02
4.900000e-07	-4.366587e-09	-1.766797e-09	-2.417316e+01	-2.080200e+02
5.000000e-07	-4.243685e-09	-1.712017e-09	-2.349279e+01	-2.018716e+02
5.100000e-07	-4.119088e-09	-1.652999e-09	-2.280302e+01	-1.956468e+02
5.200000e-07	-3.993004e-09	-1.603354e-09	-2.210503e+01	-1.893479e+02
5.300000e-07	-3.865529e-09	-1.557128e-09	-2.139934e+01	-1.829773e+02
5.400000e-07	-3.736631e-09	-1.501973e-09	-2.068577e+01	-1.765374e+02
5.500000e-07	-3.606195e-09	-1.437515e-09	-1.996368e+01	-1.700306e+02
5.600000e-07	-3.474188e-09	-1.367825e-09	-1.923290e+01	-1.634594e+02
5.700000e-07	-3.340828e-09	-1.307737e-09	-1.849463e+01	-1.568263e+02
5.800000e-07	-3.206326e-09	-1.255398e-09	-1.775003e+01	-1.501338e+02
5.900000e-07	-3.070689e-09	-1.203994e-09	-1.699915e+01	-1.433845e+02
6.000000e-07	-2.933863e-09	-1.146901e-09	-1.624169e+01	-1.365808e+02
6.100000e-07	-2.795850e-09	-1.086859e-09	-1.547766e+01	-1.297254e+02
6.200000e-07	-2.656622e-09	-1.027708e-09	-1.470691e+01	-1.228209e+02
6.300000e-07	-2.516153e-09	-9.668046e-10	-1.392928e+01	-1.158698e+02
6.400000e-07	-2.374615e-09	-9.044573e-10	-1.314574e+01	-1.088748e+02
6.500000e-07	-2.232122e-09	-8.418738e-10	-1.235690e+01	-1.018386e+02
6.600000e-07	-2.088683e-09	-7.818050e-10	-1.156284e+01	-9.476378e+01
6.700000e-07	-1.944391e-09	-7.243343e-10	-1.076405e+01	-8.765307e+01
6.800000e-07	-1.799367e-09	-6.655031e-10	-9.961201e+00	-8.050914e+01
6.900000e-07	-1.653666e-09	-6.015489e-10	-9.154610e+00	-7.333471e+01
7.000000e-07	-1.507339e-09	-5.330978e-10	-8.344554e+00	-6.613247e+01
7.100000e-07	-1.360511e-09	-4.663289e-10	-7.531723e+00	-5.890518e+01
7.200000e-07	-1.213284e-09	-4.053353e-10	-6.716679e+00	-5.165554e+01
7.300000e-07	-1.065694e-09	-3.455566e-10	-5.899629e+00	-4.438633e+01
7.400000e-07	-9.177693e-10	-2.834976e-10	-5.080728e+00	-3.710027e+01
7.500000e-07	-7.695367e-10	-2.197627e-10	-4.260121e+00	-2.980014e+01
7.600000e-07	-6.210295e-10	-1.564846e-10	-3.437994e+00	-2.248869e+01
7.700000e-07	-4.723143e-10	-9.647393e-11	-2.614715e+00	-1.516870e+01
7.800000e-07	-3.234499e-10	-3.672262e-11	-1.790611e+00	-7.842935e+00
7.900000e-07	-1.744828e-10	2.739633e-11	-9.659374e-01	-5.141670e-01
8.000000e-07	-2.545992e-11	9.405201e-11	-1.409551e-01	6.814829e+00
8.100000e-07	1.235903e-10	1.577293e-10	6.841783e-01	1.414128e+01
8.200000e-07	2.726211e-10	2.169185e-10	1.509204e+00	2.146240e+01
8.300000e-07	4.215589e-10	2.759381e-10	2.333715e+00	2.877544e+01
8.400000e-07	5.703468e-10	3.398518e-10	3.157396e+00	3.607762e+01
8.500000e-07	7.189411e-10	4.056119e-10	3.980006e+00	4.336617e+01
8.600000e-07	8.672962e-10	4.685314e-10	4.801291e+00	5.063833e+01
8.700000e-07	1.015351e-09	5.281253e-10	5.620915e+00	5.789136e+01
8.800000e-07	1.163030e-09	5.867823e-10	6.438457e+00	6.512251e+01
8.900000e-07	1.310282e-09	6.481272e-10	7.253637e+00	7.232903e+01
9.000000e-07	1.457087e-09	7.108283e-10	8.066338e+00	7.950821e+01
9.100000e-07	1.603368e-09	7.719062e-10	8.876140e+00	8.665732e+01
9.200000e-07	1.749022e-09	8.311990e-10	9.682470e+00	9.377366e+01
9.300000e-07	1.893970e-09	8.914031e-10	1.048489e+01	1.008545e+02
9.400000e-07	2.038129e-09	9.533666e-10	1.128295e+01	1.078973e+02
9.500000e-07	2.181442e-09	1.014461e-09	1.207632e+01	1.148992e+02
9.600000e-07	2.323856e-09	1.072669e-09	1.286472e+01	1.218576e+02
9.700000e-07	2.465342e-09	1.129113e-09	1.364797e+01	1.287700e+02
9.800000e-07	2.605822e-09	1.187898e-09	1.442566e+01	1.356336e+02
9.900000e-07	2.745176e-09	1.248179e-09	1.519712e+01	1.424459e+02
1.000000e-06	2.883345e-09	1.305660e-09	1.596201e+01	1.492044e+02
1.010000e-06	3.020308e-09	1.359916e-09	1.672023e+01	1.559064e+02
1.020000e-06	3.156063e-09	1.413027e-09	1.747176e+01	1.625494e+02
1.030000e-06	3.290607e-09	1.467498e-09	1.821659e+01	1.691308e+02
1.040000e-06	3.423978e-09	1.524910e-09	1.895492e+01	1.756483e+02
1.050000e-06	3.556106e-09	1.581782e-09	1.968637e+01	1.820994e+02
1.060000e-06	3.686816e-09	1.634510e-09	2.040998e+01	1.884815e+02
1.070000e-06	3.816072e-09	1.685730e-09	2.112553e+01	1.947923e+02
1.080000e-06	3.943893e-09	1.737622e-09	2.183314e+01	2.010295e+02
1.090000e-06	4.070306e-09	1.789109e-09	2.253295e+01	2.071905e+02
1.100000e-06	4.195330e-09	1.838384e-09	2.322508e+01	2.132731e+02
1.110000e-06	4.318819e-09	1.886749e-09	2.390870e+01	2.192751e+02
1.120000e-06	4.440589e-09	1.936644e-09	2.458282e+01	2.251940e+02
1.130000e-06	4.560631e-09	1.988451e-09	2.524736e+01	2.310278e+02
1.140000e-06	4.678986e-09	2.039828e-09	2.590257e+01	2.367741e+02
1.150000e-06	4.795520e-09	2.086391e-09	2.654769e+01	2.424308e+02
1.160000e-06	4.910010e-09	2.129679e-09	2.718150e+01	2.479958e+02
1.170000e-06	5.022456e-09	2.172914e-09	2.780400e+01	2.534669e+02
1.180000e-06	5.133030e-09	2.217397e-09	2.841613e+01	2.588421e+02
1.190000e-06	5.241830e-09	2.261278e-09	2.901844e+01	2.641193e+02
1.200000e-06	5.348679e-09	2.302901e-09	2.960995e+01	2.692966e+02
1.210000e-06	5.453386e-09	2.343928e-09	3.018960e+01	2.743720e+02
1.220000e-06	5.555999e-09	2.385583e-09	3.075766e+01	2.793436e+02
1.230000e-06	5.656532e-09	2.427848e-09	3.131420e+01	2.842094e+02
1.240000e-06	5.754805e-09	2.468371e-09	3.185823e+01	2.889677e+02
1.250000e-06	5.850785e-09	2.505648e-09	3.238957e+01	2.936166e+02
1.260000e-06	5.944652e-09	2.540950e-09	3.290922e+01	2.981544e+02
1.270000e-06	6.036369e-09	2.576078e-09	3.341696e+01	3.025794e+02
1.280000e-06	6.125754e-09	2.611070e-09	3.391179e+01	3.068898e+02
1.290000e-06	6.212832e-09	2.645383e-09	3.439385e+01	3.110841e+02
1.300000e-06	6.297717e-09	2.678400e-09	3.486376e+01	3.151607e+02
1.310000e-06	6.380294e-09	2.711100e-09	3.532090e+01	3.191180e+02
1.320000e-06	6.460392e-09	2.743457e-09	3.576432e+01	3.229545e+02
1.330000e-06	6.537992e-09	2.773997e-09	3.619391e+01	3.266688e+02
1.340000e-06	6.612965e-09	2.801799e-09	3.660895e+01	3.302595e+02
1.350000e-06	6.685298e-09	2.827510e-09	3.700939e+01	3.337252e+02
1.360000e-06	6.755189e-09	2.852860e-09	3.739630e+01	3.370646e+02
1.370000e-06	6.822557e-09	2.877891e-09	3.776924e+01	3.402764e+02
1.380000e-06	6.887288e-09	2.902414e-09	3.812759e+01	3.433594e+02
1.390000e-06	6.949538e-09	2.926222e-09	3.847221e+01	3.463125e+02
1.400000e-06	7.009315e-09	2.948426e-09	3.880313e+01	3.491345e+02
1.410000e-06	7.066455e-09	2.969445e-09	3.911945e+01	3.518244e+02
1.420000e-06	7.120886e-09	2.989918e-09	3.942077e+01	3.543811e+02
1.430000e-06	7.172316e-09	3.009511e-09	3.970549e+01	3.568037e+02
1.440000e-06	7.220689e-09	3.028472e-09	3.997328e+01	3.590912e+02
1.450000e-06	7.266378e-09	3.046329e-09	4.022621e+01	3.612429e+02
1.460000e-06	7.309392e-09	3.061847e-09	4.046433e+01	3.632578e+02
1.470000e-06	7.349592e-09	3.075644e-09	4.068688e+01	3.651353e+02
1.480000e-06	7.387126e-09	3.088412e-09	4.089466e+01	3.668745e+02
1.490000e-06	7.421967e-09	3.100278e-09	4.108754e+01	3.684749e+02
1.500000e-06	7.453987e-09	3.111535e-09	4.126480e+01	3.699359e+02
1.510000e-06	7.483322e-09	3.122282e-09	4.142720e+01	3.712568e+02
1.520000e-06	7.509861e-09	3.132899e-09	4.157412e+01	3.724372e+02
1.530000e-06	7.533457e-09	3.142767e-09	4.170475e+01	3.734767e+02
1.540000e-06	7.554346e-09	3.150338e-09	4.182038e+01	3.743748e+02
1.550000e-06	7.572491e-09	3.154888e-09	4.192084e+01	3.751313e+02
1.560000e-06	7.587667e-09	3.157938e-09	4.200485e+01	3.757457e+02
1.570000e-06	7.599736e-09	3.161921e-09	4.207166e+01	3.762179e+02
1.580000e-06	7.608701e-09	3.166899e-09	4.212129e+01	3.765478e+02
1.590000e-06	7.614829e-09	3.170688e-09	4.215522e+01	3.767351e+02
1.600000e-06	7.618155e-09	3.172171e-09	4.217363e+01	3.767799e+02
1.610000e-06	7.618631e-09	3.172717e-09	4.217626e+01	3.766820e+02
1.620000e-06	7.616473e-09	3.170313e-09	4.216432e+01	3.764416e+02
1.630000e-06	7.611658e-09	3.165983e-09	4.213766e+01	3.760587e+02
1.640000e-06	7.604107e-09	3.163340e-09	4.209586e+01	3.755335e+02
1.650000e-06	7.593880e-09	3.159504e-09	4.203925e+01	3.748662e+02
1.660000e-06	7.580812e-09	3.153867e-09	4.196690e+01	3.740569e+02
1.670000e-06	7.565060e-09	3.148568e-09	4.187970e+01	3.731061e+02
1.680000e-06	7.547002e-09	3.147130e-09	4.177973e+01	3.720141e+02
1.690000e-06	7.526611e-09	3.139091e-09	4.166685e+01	3.707813e+02
1.700000e-06	7.503315e-09	3.084754e-09	4.153789e+01	3.694082e+02
1.710000e-06	7.476233e-09	3.062971e-09	4.138796e+01	3.678952e+02
1.720000e-06	7.445180e-09	3.071270e-09	4.121605e+01	3.662431e+02
1.730000e-06	7.411181e-09	3.065381e-09	4.102784e+01	3.644523e+02
1.740000e-06	7.375470e-09	3.109878e-09	4.083014e+01	3.625235e+02
1.750000e-06	7.338368e-09	3.065763e-09	4.062475e+01	3.604576e+02
1.760000e-06	7.298890e-09	2.989317e-09	4.040620e+01	3.582552e+02
1.770000e-06	7.256355e-09	3.051295e-09	4.017073e+01	3.559173e+02
1.780000e-06	7.211551e-09	2.998938e-09	3.992270e+01	3.534446e+02
1.790000e-06	7.164057e-09	2.973667e-09	3.965977e+01	3.508382e+02
1.800000e-06	7.113105e-09	3.052953e-09	3.937771e+01	3.480990e+02
1.810000e-06	7.059353e-09	2.951590e-09	3.908014e+01	3.452280e+02
1.820000e-06	7.002764e-09	2.950552e-09	3.876687e+01	3.422264e+02
1.830000e-06	6.943515e-09	2.964659e-09	3.843887e+01	3.390953e+02
1.840000e-06	6.881861e-09	2.861728e-09	3.809756e+01	3.358358e+02
1.850000e-06	6.817278e-09	2.878346e-09	3.774003e+01	3.324493e+02
1.860000e-06	6.750108e-09	2.804741e-09	3.736818e+01	3.289369e+02
1.870000e-06	6.680223e-09	2.772169e-09	3.698130e+01	3.253000e+02
1.880000e-06	6.607439e-09	2.815159e-09	3.657837e+01	3.215400e+02
1.890000e-06	6.532171e-09	2.741952e-09	3.616169e+01	3.176583e+02
1.900000e-06	6.454073e-09	2.739291e-09	3.572935e+01	3.136564e+02
1.910000e-06	6.373457e-09	2.664669e-09	3.528307e+01	3.095358e+02
1.920000e-06	6.290605e-09	2.603733e-09	3.482440e+01	3.052981e+02
1.930000e-06	6.205254e-09	2.597403e-09	3.435190e+01	3.009448e+02
1.940000e-06	6.117484e-09	2.541862e-09	3.386602e+01	2.964776e+02
1.950000e-06	6.027313e-09	2.551594e-09	3.336683e+01	2.918982e+02
1.960000e-06	5.935037e-09	2.480125e-09	3.285600e+01	2.872083e+02
1.970000e-06	5.840534e-09	2.449981e-09	3.233284e+01	2.824097e+02
1.980000e-06	5.743817e-09	2.423935e-09	3.179742e+01	2.775043e+02
1.990000e-06	5.645189e-09	2.336447e-09	3.125142e+01	2.724938e+02
2.000000e-06	5.544208e-09	2.314408e-09	3.069240e+01	2.673803e+02
2.010000e-06	5.440967e-09	2.244110e-09	3.012086e+01	2.621655e+02
2.020000e-06	5.335751e-09	2.228034e-09	2.953839e+01	2.568515e+02
2.030000e-06	5.228707e-09	2.202441e-09	2.894580e+01	2.514403e+02
2.040000e-06	5.119800e-09	2.141588e-09	2.834290e+01	2.459340e+02
2.050000e-06	5.008758e-09	2.094760e-09	2.772818e+01	2.403346e+02
2.060000e-06	4.895799e-09	2.015395e-09	2.710284e+01	2.346442e+02
2.070000e-06	4.780852e-09	1.982717e-09	2.646650e+01	2.288651e+02
2.080000e-06	4.663883e-09	1.936305e-09	2.581897e+01	2.229993e+02
2.090000e-06	4.544963e-09	1.895284e-09	2.516064e+01	2.170491e+02
2.100000e-06	4.424193e-09	1.846272e-09	2.449206e+01	2.110169e+02
2.110000e-06	4.301835e-09	1.783633e-09	2.381470e+01	2.049047e+02
2.120000e-06	4.177872e-09	1.739576e-09	2.312845e+01	1.987150e+02
2.130000e-06	4.052376e-09	1.674652e-09	2.243371e+01	1.924502e+02
2.140000e-06	3.925258e-09	1.618547e-09	2.172999e+01	1.861125e+02
2.150000e-06	3.796587e-09	1.562421e-09	2.101768e+01	1.797044e+02
2.160000e-06	3.666548e-09	1.514633e-09	2.029779e+01	1.732283e+02
2.170000e-06	3.535139e-09	1.472715e-09	1.957032e+01	1.666866e+02
2.180000e-06	3.402405e-09	1.416023e-09	1.883551e+01	1.600819e+02
2.190000e-06	3.268282e-09	1.351193e-09	1.809302e+01	1.534166e+02
2.200000e-06	3.132859e-09	1.280401e-09	1.734332e+01	1.466932e+02
2.210000e-06	2.996250e-09	1.220096e-09	1.658706e+01	1.399144e+02
2.220000e-06	2.858523e-09	1.170331e-09	1.582461e+01	1.330826e+02
2.230000e-06	2.719684e-09	1.118939e-09	1.505601e+01	1.262005e+02
2.240000e-06	2.579714e-09	1.062719e-09	1.428115e+01	1.192706e+02
2.250000e-06	2.438707e-09	9.997341e-10	1.350054e+01	1.122956e+02
2.260000e-06	2.296644e-09	9.402949e-10	1.271409e+01	1.052781e+02
2.270000e-06	2.153596e-09	8.818424e-10	1.192218e+01	9.822081e+01
2.280000e-06	2.009712e-09	8.185062e-10	1.112565e+01	9.112636e+01
2.290000e-06	1.865144e-09	7.549043e-10	1.032533e+01	8.399744e+01
2.300000e-06	1.720047e-09	6.930269e-10	9.522080e+00	7.683676e+01
2.310000e-06	1.574389e-09	6.391023e-10	8.715727e+00	6.964702e+01
2.320000e-06	1.428171e-09	5.834906e-10	7.906272e+00	6.243094e+01
2.330000e-06	1.281430e-09	5.217037e-10	7.093924e+00	5.519127e+01
2.340000e-06	1.134246e-09	4.544880e-10	6.279124e+00	4.793072e+01
2.350000e-06	9.866585e-10	3.891746e-10	5.462088e+00	4.065207e+01
2.360000e-06	8.386380e-10	3.301321e-10	4.642656e+00	3.335805e+01
2.370000e-06	6.903213e-10	2.721792e-10	3.821585e+00	2.605144e+01
2.380000e-06	5.417707e-10	2.114721e-10	2.999218e+00	1.873500e+01
2.390000e-06	3.930225e-10	1.438269e-10	2.175758e+00	1.141150e+01
2.400000e-06	2.441477e-10	7.868495e-11	1.351597e+00	4.083701e+00
2.410000e-06	9.516899e-11	1.739984e-11	5.268607e-01	-3.245609e+00
2.420000e-06	-5.389460e-11	-4.466384e-11	-2.983456e-01	-1.057366e+01
2.430000e-06	-2.029610e-10	-1.091692e-10	-1.123567e+00	-1.789768e+01
2.440000e-06	-3.519045e-10	-1.739440e-10	-1.948109e+00	-2.521489e+01
2.450000e-06	-5.006950e-10	-2.342861e-10	-2.771803e+00	-3.252253e+01
2.460000e-06	-6.492973e-10	-2.947516e-10	-3.594456e+00	-3.981782e+01
2.470000e-06	-7.976570e-10	-3.598252e-10	-4.415766e+00	-4.709801e+01
2.480000e-06	-9.457138e-10	-4.283408e-10	-5.235399e+00	-5.436034e+01
2.490000e-06	-1.093410e-09	-4.955324e-10	-6.053035e+00	-6.160206e+01
2.500000e-06	-1.240699e-09	-5.579715e-10	-6.868417e+00	-6.882044e+01
2.510000e-06	-1.387462e-09	-6.174481e-10	-7.680891e+00	-7.601272e+01
2.520000e-06	-1.533665e-09	-6.785541e-10	-8.490259e+00	-8.317621e+01
2.530000e-06	-1.679331e-09	-7.433568e-10	-9.296659e+00	-9.030817e+01
2.540000e-06	-1.824421e-09	-8.078560e-10	-1.009987e+01	-9.740592e+01
2.550000e-06	-1.968886e-09	-8.700432e-10	-1.089962e+01	-1.044668e+02
2.560000e-06	-2.112637e-09	-9.319409e-10	-1.169542e+01	-1.114880e+02
2.570000e-06	-2.255527e-09	-9.949712e-10	-1.248645e+01	-1.184671e+02
2.580000e-06	-2.397422e-09	-1.058664e-09	-1.327197e+01	-1.254012e+02
2.590000e-06	-2.538279e-09	-1.120179e-09	-1.405175e+01	-1.322879e+02
2.600000e-06	-2.678043e-09	-1.178816e-09	-1.482547e+01	-1.391244e+02
2.610000e-06	-2.816640e-09	-1.237529e-09	-1.559273e+01	-1.459083e+02
2.620000e-06	-2.954082e-09	-1.297753e-09	-1.635360e+01	-1.526369e+02
2.630000e-06	-3.090436e-09	-1.357257e-09	-1.710845e+01	-1.593076e+02
2.640000e-06	-3.225693e-09	-1.414355e-09	-1.785723e+01	-1.659181e+02
2.650000e-06	-3.359712e-09	-1.469527e-09	-1.859915e+01	-1.724657e+02
2.660000e-06	-3.492368e-09	-1.525286e-09	-1.933352e+01	-1.789479e+02
2.670000e-06	-3.623654e-09	-1.584992e-09	-2.006031e+01	-1.853624e+02
2.680000e-06	-3.753612e-09	-1.646504e-09	-2.077975e+01	-1.917067e+02
2.690000e-06	-3.882299e-09	-1.705981e-09	-2.149215e+01	-1.979784e+02
2.700000e-06	-4.009646e-09	-1.761690e-09	-2.219714e+01	-2.041752e+02
2.710000e-06	-4.135439e-09	-1.814381e-09	-2.289352e+01	-2.102946e+02
2.720000e-06	-4.259609e-09	-1.866985e-09	-2.358092e+01	-2.163343e+02
2.730000e-06	-4.382217e-09	-1.920261e-09	-2.425967e+01	-2.222922e+02
2.740000e-06	-4.503260e-09	-1.972256e-09	-2.492976e+01	-2.281658e+02
2.750000e-06	-4.622595e-09	-2.022744e-09	-2.559039e+01	-2.339531e+02
2.760000e-06	-4.739969e-09	-2.075339e-09	-2.624016e+01	-2.396517e+02
2.770000e-06	-4.855280e-09	-2.129760e-09	-2.687852e+01	-2.452596e+02
2.780000e-06	-4.968519e-09	-2.182598e-09	-2.750540e+01	-2.507747e+02
2.790000e-06	-5.079652e-09	-2.230350e-09	-2.812062e+01	-2.561947e+02
2.800000e-06	-5.188806e-09	-2.272790e-09	-2.872489e+01	-2.615178e+02
2.810000e-06	-5.296139e-09	-2.316795e-09	-2.931909e+01	-2.667418e+02
2.820000e-06	-5.401632e-09	-2.364889e-09	-2.990309e+01	-2.718648e+02
2.830000e-06	-5.505115e-09	-2.412808e-09	-3.047596e+01	-2.768849e+02
2.840000e-06	-5.606392e-09	-2.456905e-09	-3.103662e+01	-2.818001e+02
2.850000e-06	-5.705506e-09	-2.497340e-09	-3.158531e+01	-2.866087e+02
2.860000e-06	-5.802595e-09	-2.538031e-09	-3.212280e+01	-2.913086e+02
2.870000e-06	-5.897553e-09	-2.580342e-09	-3.264848e+01	-2.958983e+02
2.880000e-06	-5.990200e-09	-2.621005e-09	-3.316137e+01	-3.003760e+02
2.890000e-06	-6.080614e-09	-2.657753e-09	-3.366189e+01	-3.047399e+02
2.900000e-06	-6.168892e-09	-2.692536e-09	-3.415059e+01	-3.089884e+02
2.910000e-06	-6.254809e-09	-2.729020e-09	-3.462623e+01	-3.131199e+02
2.920000e-06	-6.338272e-09	-2.766311e-09	-3.508827e+01	-3.171328e+02
2.930000e-06	-6.419459e-09	-2.799998e-09	-3.553772e+01	-3.210257e+02
2.940000e-06	-6.498246e-09	-2.829433e-09	-3.597388e+01	-3.247970e+02
