# Temperatura_=_20.0
# Concentracion g/m^3_=_10000.0
# C_Vs_to_Am_M_A/Vsm_=_116720831517.84952
# pendiente_HvsI_1/m_=_3716.3
# ordenada_HvsI_A/m_=_1297.0
# frecuencia_Hz_=_135323.52372538898
# Promedio de 25 ciclos

Tiempo_(s)	Campo_(V.s)	Magnetizacion_(V.s)	Campo_(kA/m)	Magnetizacion_(A/m)
0.000000e+00	-8.102277e-09	-3.426635e-09	-4.218064e+01	-4.028237e+02
1.000000e-08	-8.102127e-09	-3.422075e-09	-4.217985e+01	-4.027372e+02
2.000000e-08	-8.101639e-09	-3.417157e-09	-4.217731e+01	-4.026214e+02
3.000000e-08	-8.100733e-09	-3.416539e-09	-4.217258e+01	-4.024766e+02
4.000000e-08	-8.099219e-09	-3.416427e-09	-4.216467e+01	-4.023027e+02
5.000000e-08	-8.096915e-09	-3.414199e-09	-4.215262e+01	-4.020996e+02
6.000000e-08	-8.093778e-09	-3.407810e-09	-4.213622e+01	-4.018675e+02
7.000000e-08	-8.089950e-09	-3.387447e-09	-4.211622e+01	-4.016063e+02
8.000000e-08	-8.085589e-09	-3.357534e-09	-4.209349e+01	-4.013161e+02
9.000000e-08	-8.080620e-09	-3.401565e-09	-4.206760e+01	-4.009968e+02
1.000000e-07	-8.074796e-09	-3.505409e-09	-4.203719e+01	-4.006486e+02
1.100000e-07	-8.068126e-09	-3.476700e-09	-4.200238e+01	-4.002713e+02
1.200000e-07	-8.061029e-09	-3.295711e-09	-4.196543e+01	-3.998651e+02
1.300000e-07	-8.053790e-09	-3.271841e-09	-4.192777e+01	-3.994300e+02
1.400000e-07	-8.046194e-09	-3.419774e-09	-4.188823e+01	-3.989660e+02
1.500000e-07	-8.038045e-09	-3.450414e-09	-4.184578e+01	-3.984732e+02
1.600000e-07	-8.029439e-09	-3.245423e-09	-4.180099e+01	-3.979515e+02
1.700000e-07	-8.020385e-09	-3.307671e-09	-4.175384e+01	-3.974010e+02
1.800000e-07	-8.010478e-09	-3.504834e-09	-4.170218e+01	-3.968218e+02
1.900000e-07	-7.999555e-09	-3.431249e-09	-4.164524e+01	-3.962139e+02
2.000000e-07	-7.987955e-09	-3.236196e-09	-4.158485e+01	-3.955774e+02
2.100000e-07	-7.975855e-09	-3.339339e-09	-4.152188e+01	-3.949122e+02
2.200000e-07	-7.963081e-09	-3.457816e-09	-4.145533e+01	-3.942185e+02
2.300000e-07	-7.949618e-09	-3.315985e-09	-4.138519e+01	-3.934962e+02
2.400000e-07	-7.935677e-09	-3.274299e-09	-4.131259e+01	-3.927455e+02
2.500000e-07	-7.921129e-09	-3.441859e-09	-4.123684e+01	-3.919664e+02
2.600000e-07	-7.905617e-09	-3.434723e-09	-4.115603e+01	-3.911589e+02
2.700000e-07	-7.889171e-09	-3.262944e-09	-4.107039e+01	-3.903232e+02
2.800000e-07	-7.872066e-09	-3.315439e-09	-4.098135e+01	-3.894592e+02
2.900000e-07	-7.854433e-09	-3.416907e-09	-4.088953e+01	-3.885671e+02
3.000000e-07	-7.836382e-09	-3.329814e-09	-4.079552e+01	-3.876468e+02
3.100000e-07	-7.817925e-09	-3.273315e-09	-4.069940e+01	-3.866985e+02
3.200000e-07	-7.798914e-09	-3.401806e-09	-4.060039e+01	-3.857222e+02
3.300000e-07	-7.779313e-09	-3.322274e-09	-4.049831e+01	-3.847181e+02
3.400000e-07	-7.759307e-09	-3.227995e-09	-4.039415e+01	-3.836861e+02
3.500000e-07	-7.738947e-09	-3.321631e-09	-4.028814e+01	-3.826264e+02
3.600000e-07	-7.718128e-09	-3.345524e-09	-4.017971e+01	-3.815390e+02
3.700000e-07	-7.696830e-09	-3.180292e-09	-4.006879e+01	-3.804240e+02
3.800000e-07	-7.675053e-09	-3.220444e-09	-3.995538e+01	-3.792814e+02
3.900000e-07	-7.652681e-09	-3.335826e-09	-3.983888e+01	-3.781115e+02
4.000000e-07	-7.629682e-09	-3.266887e-09	-3.971913e+01	-3.769142e+02
4.100000e-07	-7.606137e-09	-3.177743e-09	-3.959652e+01	-3.756896e+02
4.200000e-07	-7.582119e-09	-3.209529e-09	-3.947145e+01	-3.744379e+02
4.300000e-07	-7.557721e-09	-3.186368e-09	-3.934438e+01	-3.731591e+02
4.400000e-07	-7.532934e-09	-3.177892e-09	-3.921531e+01	-3.718533e+02
4.500000e-07	-7.507520e-09	-3.216990e-09	-3.908298e+01	-3.705206e+02
4.600000e-07	-7.481253e-09	-3.172739e-09	-3.894620e+01	-3.691611e+02
4.700000e-07	-7.454174e-09	-3.110121e-09	-3.880520e+01	-3.677749e+02
4.800000e-07	-7.426475e-09	-3.143519e-09	-3.866098e+01	-3.663621e+02
4.900000e-07	-7.398329e-09	-3.151094e-09	-3.851443e+01	-3.649228e+02
5.000000e-07	-7.369831e-09	-3.096909e-09	-3.836604e+01	-3.634571e+02
5.100000e-07	-7.340918e-09	-3.080995e-09	-3.821549e+01	-3.619651e+02
5.200000e-07	-7.311462e-09	-3.076348e-09	-3.806212e+01	-3.604470e+02
5.300000e-07	-7.281465e-09	-3.075072e-09	-3.790593e+01	-3.589027e+02
5.400000e-07	-7.250988e-09	-3.079605e-09	-3.774723e+01	-3.573325e+02
5.500000e-07	-7.219989e-09	-3.048142e-09	-3.758581e+01	-3.557365e+02
5.600000e-07	-7.188439e-09	-2.992302e-09	-3.742154e+01	-3.541148e+02
5.700000e-07	-7.156456e-09	-2.994429e-09	-3.725501e+01	-3.524674e+02
5.800000e-07	-7.124157e-09	-3.001321e-09	-3.708683e+01	-3.507945e+02
5.900000e-07	-7.091538e-09	-2.991036e-09	-3.691699e+01	-3.490963e+02
6.000000e-07	-7.058447e-09	-2.965398e-09	-3.674469e+01	-3.473728e+02
6.100000e-07	-7.024680e-09	-2.937234e-09	-3.656886e+01	-3.456242e+02
6.200000e-07	-6.990114e-09	-2.911425e-09	-3.638885e+01	-3.438506e+02
6.300000e-07	-6.954800e-09	-2.918648e-09	-3.620493e+01	-3.420521e+02
6.400000e-07	-6.918924e-09	-2.901727e-09	-3.601808e+01	-3.402289e+02
6.500000e-07	-6.882646e-09	-2.869445e-09	-3.582917e+01	-3.383810e+02
6.600000e-07	-6.846016e-09	-2.844867e-09	-3.563844e+01	-3.365087e+02
6.700000e-07	-6.808971e-09	-2.840396e-09	-3.544553e+01	-3.346121e+02
6.800000e-07	-6.771410e-09	-2.830754e-09	-3.524993e+01	-3.326912e+02
6.900000e-07	-6.733333e-09	-2.819894e-09	-3.505168e+01	-3.307463e+02
7.000000e-07	-6.694791e-09	-2.784818e-09	-3.485101e+01	-3.287775e+02
7.100000e-07	-6.655782e-09	-2.754768e-09	-3.464789e+01	-3.267849e+02
7.200000e-07	-6.616283e-09	-2.746418e-09	-3.444222e+01	-3.247686e+02
7.300000e-07	-6.576364e-09	-2.743726e-09	-3.423438e+01	-3.227289e+02
7.400000e-07	-6.536151e-09	-2.718338e-09	-3.402501e+01	-3.206658e+02
7.500000e-07	-6.495678e-09	-2.686150e-09	-3.381427e+01	-3.185795e+02
7.600000e-07	-6.454830e-09	-2.659613e-09	-3.360159e+01	-3.164702e+02
7.700000e-07	-6.413412e-09	-2.649052e-09	-3.338594e+01	-3.143380e+02
7.800000e-07	-6.371279e-09	-2.644471e-09	-3.316657e+01	-3.121831e+02
7.900000e-07	-6.328421e-09	-2.626772e-09	-3.294340e+01	-3.100055e+02
8.000000e-07	-6.284924e-09	-2.598826e-09	-3.271688e+01	-3.078056e+02
8.100000e-07	-6.240931e-09	-2.578750e-09	-3.248780e+01	-3.055834e+02
8.200000e-07	-6.196573e-09	-2.567472e-09	-3.225683e+01	-3.033391e+02
8.300000e-07	-6.151877e-09	-2.545822e-09	-3.202411e+01	-3.010728e+02
8.400000e-07	-6.106792e-09	-2.515033e-09	-3.178937e+01	-2.987848e+02
8.500000e-07	-6.061286e-09	-2.485479e-09	-3.155244e+01	-2.964751e+02
8.600000e-07	-6.015351e-09	-2.473863e-09	-3.131326e+01	-2.941441e+02
8.700000e-07	-5.969012e-09	-2.467310e-09	-3.107199e+01	-2.917917e+02
8.800000e-07	-5.922292e-09	-2.453413e-09	-3.082873e+01	-2.894182e+02
8.900000e-07	-5.875184e-09	-2.423681e-09	-3.058346e+01	-2.870238e+02
9.000000e-07	-5.827689e-09	-2.395687e-09	-3.033616e+01	-2.846087e+02
9.100000e-07	-5.779817e-09	-2.371307e-09	-3.008690e+01	-2.821729e+02
9.200000e-07	-5.731567e-09	-2.355044e-09	-2.983568e+01	-2.797168e+02
9.300000e-07	-5.682904e-09	-2.333691e-09	-2.958232e+01	-2.772404e+02
9.400000e-07	-5.633753e-09	-2.309812e-09	-2.932644e+01	-2.747439e+02
9.500000e-07	-5.583996e-09	-2.283464e-09	-2.906741e+01	-2.722276e+02
9.600000e-07	-5.533593e-09	-2.266065e-09	-2.880499e+01	-2.696916e+02
9.700000e-07	-5.482587e-09	-2.248010e-09	-2.853942e+01	-2.671361e+02
9.800000e-07	-5.431032e-09	-2.225674e-09	-2.827098e+01	-2.645612e+02
9.900000e-07	-5.378979e-09	-2.196142e-09	-2.799997e+01	-2.619673e+02
1.000000e-06	-5.326487e-09	-2.172090e-09	-2.772669e+01	-2.593544e+02
1.010000e-06	-5.273609e-09	-2.152900e-09	-2.745140e+01	-2.567227e+02
1.020000e-06	-5.220371e-09	-2.133577e-09	-2.717423e+01	-2.540724e+02
1.030000e-06	-5.166774e-09	-2.105203e-09	-2.689520e+01	-2.514038e+02
1.040000e-06	-5.112823e-09	-2.075473e-09	-2.661434e+01	-2.487170e+02
1.050000e-06	-5.058511e-09	-2.052031e-09	-2.633157e+01	-2.460122e+02
1.060000e-06	-5.003836e-09	-2.036060e-09	-2.604691e+01	-2.432896e+02
1.070000e-06	-4.948787e-09	-2.017867e-09	-2.576030e+01	-2.405494e+02
1.080000e-06	-4.893367e-09	-1.992558e-09	-2.547175e+01	-2.377918e+02
1.090000e-06	-4.837605e-09	-1.962346e-09	-2.518142e+01	-2.350170e+02
1.100000e-06	-4.781552e-09	-1.933811e-09	-2.488959e+01	-2.322252e+02
1.110000e-06	-4.725274e-09	-1.908890e-09	-2.459658e+01	-2.294166e+02
1.120000e-06	-4.668778e-09	-1.884239e-09	-2.430245e+01	-2.265914e+02
1.130000e-06	-4.612040e-09	-1.859792e-09	-2.400705e+01	-2.237498e+02
1.140000e-06	-4.555022e-09	-1.835761e-09	-2.371021e+01	-2.208920e+02
1.150000e-06	-4.497633e-09	-1.814685e-09	-2.341145e+01	-2.180183e+02
1.160000e-06	-4.439820e-09	-1.791079e-09	-2.311046e+01	-2.151288e+02
1.170000e-06	-4.381551e-09	-1.763142e-09	-2.280709e+01	-2.122237e+02
1.180000e-06	-4.322806e-09	-1.731557e-09	-2.250120e+01	-2.093032e+02
1.190000e-06	-4.263614e-09	-1.704366e-09	-2.219302e+01	-2.063677e+02
1.200000e-06	-4.204000e-09	-1.682162e-09	-2.188265e+01	-2.034172e+02
1.210000e-06	-4.144035e-09	-1.661412e-09	-2.157043e+01	-2.004520e+02
1.220000e-06	-4.083805e-09	-1.633839e-09	-2.125684e+01	-1.974722e+02
1.230000e-06	-4.023347e-09	-1.602465e-09	-2.094206e+01	-1.944782e+02
1.240000e-06	-3.962672e-09	-1.570192e-09	-2.062617e+01	-1.914702e+02
1.250000e-06	-3.901801e-09	-1.543985e-09	-2.030925e+01	-1.884483e+02
1.260000e-06	-3.840720e-09	-1.517905e-09	-1.999126e+01	-1.854127e+02
1.270000e-06	-3.779410e-09	-1.490952e-09	-1.967208e+01	-1.823637e+02
1.280000e-06	-3.717851e-09	-1.462842e-09	-1.935157e+01	-1.793016e+02
1.290000e-06	-3.656043e-09	-1.437025e-09	-1.902978e+01	-1.762264e+02
1.300000e-06	-3.594000e-09	-1.411347e-09	-1.870676e+01	-1.731386e+02
1.310000e-06	-3.531726e-09	-1.384380e-09	-1.838255e+01	-1.700382e+02
1.320000e-06	-3.469216e-09	-1.354602e-09	-1.805710e+01	-1.669255e+02
1.330000e-06	-3.406444e-09	-1.326114e-09	-1.773029e+01	-1.638007e+02
1.340000e-06	-3.343398e-09	-1.300629e-09	-1.740207e+01	-1.606641e+02
1.350000e-06	-3.280101e-09	-1.276496e-09	-1.707255e+01	-1.575158e+02
1.360000e-06	-3.216586e-09	-1.247723e-09	-1.674188e+01	-1.543561e+02
1.370000e-06	-3.152872e-09	-1.215148e-09	-1.641015e+01	-1.511853e+02
1.380000e-06	-3.088956e-09	-1.184085e-09	-1.607738e+01	-1.480036e+02
1.390000e-06	-3.024872e-09	-1.156508e-09	-1.574375e+01	-1.448111e+02
1.400000e-06	-2.960673e-09	-1.130930e-09	-1.540951e+01	-1.416082e+02
1.410000e-06	-2.896342e-09	-1.103640e-09	-1.507457e+01	-1.383950e+02
1.420000e-06	-2.831867e-09	-1.074435e-09	-1.473890e+01	-1.351718e+02
1.430000e-06	-2.767263e-09	-1.044394e-09	-1.440255e+01	-1.319388e+02
1.440000e-06	-2.702521e-09	-1.014834e-09	-1.406548e+01	-1.286963e+02
1.450000e-06	-2.637629e-09	-9.840208e-10	-1.372763e+01	-1.254445e+02
1.460000e-06	-2.572552e-09	-9.525132e-10	-1.338882e+01	-1.221835e+02
1.470000e-06	-2.507256e-09	-9.210305e-10	-1.304890e+01	-1.189138e+02
1.480000e-06	-2.441726e-09	-8.917079e-10	-1.270776e+01	-1.156354e+02
1.490000e-06	-2.375931e-09	-8.650711e-10	-1.236524e+01	-1.123487e+02
1.500000e-06	-2.309869e-09	-8.383773e-10	-1.202135e+01	-1.090539e+02
1.510000e-06	-2.243559e-09	-8.068910e-10	-1.167615e+01	-1.057511e+02
1.520000e-06	-2.177007e-09	-7.739262e-10	-1.132966e+01	-1.024407e+02
1.530000e-06	-2.110257e-09	-7.437257e-10	-1.098215e+01	-9.912291e+01
1.540000e-06	-2.043322e-09	-7.172659e-10	-1.063368e+01	-9.579793e+01
1.550000e-06	-1.976194e-09	-6.900708e-10	-1.028420e+01	-9.246602e+01
1.560000e-06	-1.908897e-09	-6.604712e-10	-9.933874e+00	-8.912741e+01
1.570000e-06	-1.841432e-09	-6.281663e-10	-9.582681e+00	-8.578235e+01
1.580000e-06	-1.773809e-09	-5.968088e-10	-9.230647e+00	-8.243109e+01
1.590000e-06	-1.706066e-09	-5.687835e-10	-8.877974e+00	-7.907386e+01
1.600000e-06	-1.638214e-09	-5.412489e-10	-8.524709e+00	-7.571090e+01
1.610000e-06	-1.570248e-09	-5.113143e-10	-8.170831e+00	-7.234247e+01
1.620000e-06	-1.502188e-09	-4.814470e-10	-7.816452e+00	-6.896880e+01
1.630000e-06	-1.434040e-09	-4.528270e-10	-7.461627e+00	-6.559014e+01
1.640000e-06	-1.365790e-09	-4.248411e-10	-7.106297e+00	-6.220672e+01
1.650000e-06	-1.297454e-09	-3.951934e-10	-6.750530e+00	-5.881881e+01
1.660000e-06	-1.229059e-09	-3.631553e-10	-6.394446e+00	-5.542664e+01
1.670000e-06	-1.160623e-09	-3.322295e-10	-6.038133e+00	-5.203045e+01
1.680000e-06	-1.092159e-09	-3.054128e-10	-5.681712e+00	-4.863050e+01
1.690000e-06	-1.023661e-09	-2.814388e-10	-5.325126e+00	-4.522702e+01
1.700000e-06	-9.551207e-10	-2.558886e-10	-4.968312e+00	-4.182027e+01
1.710000e-06	-8.865348e-10	-2.265952e-10	-4.611268e+00	-3.841049e+01
1.720000e-06	-8.178965e-10	-1.966430e-10	-4.253962e+00	-3.499792e+01
1.730000e-06	-7.492148e-10	-1.676790e-10	-3.896429e+00	-3.158282e+01
1.740000e-06	-6.805064e-10	-1.394406e-10	-3.538745e+00	-2.816543e+01
1.750000e-06	-6.117597e-10	-1.104890e-10	-3.180852e+00	-2.474600e+01
1.760000e-06	-5.429583e-10	-8.117292e-11	-2.822679e+00	-2.132478e+01
1.770000e-06	-4.741127e-10	-5.393822e-11	-2.464275e+00	-1.790201e+01
1.780000e-06	-4.052356e-10	-2.847821e-11	-2.105718e+00	-1.447794e+01
1.790000e-06	-3.363419e-10	-1.860768e-12	-1.747065e+00	-1.105281e+01
1.800000e-06	-2.674329e-10	2.740289e-11	-1.388326e+00	-7.626883e+00
1.810000e-06	-1.985246e-10	5.676501e-11	-1.029604e+00	-4.200398e+00
1.820000e-06	-1.296200e-10	8.495428e-11	-6.708897e-01	-7.736041e-01
1.830000e-06	-6.071261e-11	1.114878e-10	-3.121642e-01	2.653251e+00
1.840000e-06	8.177786e-12	1.367956e-10	4.646494e-02	6.079919e+00
1.850000e-06	7.705416e-11	1.629953e-10	4.050455e-01	9.506153e+00
1.860000e-06	1.459218e-10	1.899557e-10	7.635969e-01	1.293170e+01
1.870000e-06	2.147914e-10	2.156257e-10	1.122149e+00	1.635633e+01
1.880000e-06	2.836657e-10	2.415019e-10	1.480720e+00	1.977977e+01
1.890000e-06	3.525131e-10	2.690331e-10	1.839151e+00	2.320179e+01
1.900000e-06	4.213469e-10	2.981096e-10	2.197522e+00	2.662213e+01
1.910000e-06	4.901777e-10	3.261673e-10	2.555866e+00	3.004056e+01
1.920000e-06	5.589815e-10	3.529745e-10	2.914052e+00	3.345682e+01
1.930000e-06	6.277412e-10	3.793978e-10	3.272011e+00	3.687066e+01
1.940000e-06	6.964471e-10	4.069421e-10	3.629690e+00	4.028185e+01
1.950000e-06	7.651067e-10	4.361876e-10	3.987110e+00	4.369012e+01
1.960000e-06	8.337281e-10	4.653122e-10	4.344320e+00	4.709524e+01
1.970000e-06	9.023034e-10	4.922722e-10	4.701314e+00	5.049696e+01
1.980000e-06	9.708210e-10	5.186252e-10	5.058013e+00	5.389504e+01
1.990000e-06	1.039276e-09	5.443644e-10	5.414386e+00	5.728922e+01
2.000000e-06	1.107682e-09	5.708197e-10	5.770522e+00	6.067926e+01
2.010000e-06	1.176044e-09	5.987326e-10	6.126432e+00	6.406493e+01
2.020000e-06	1.244347e-09	6.272183e-10	6.482030e+00	6.744596e+01
2.030000e-06	1.312596e-09	6.551553e-10	6.837327e+00	7.082212e+01
2.040000e-06	1.380783e-09	6.814443e-10	7.192301e+00	7.419317e+01
2.050000e-06	1.448892e-09	7.068727e-10	7.546882e+00	7.755885e+01
2.060000e-06	1.516920e-09	7.312115e-10	7.901031e+00	8.091894e+01
2.070000e-06	1.584842e-09	7.558588e-10	8.254642e+00	8.427317e+01
2.080000e-06	1.652643e-09	7.822844e-10	8.607602e+00	8.762132e+01
2.090000e-06	1.720329e-09	8.099223e-10	8.959954e+00	9.096313e+01
2.100000e-06	1.787873e-09	8.391209e-10	9.311596e+00	9.429838e+01
2.110000e-06	1.855250e-09	8.682370e-10	9.662365e+00	9.762681e+01
2.120000e-06	1.922450e-09	8.946006e-10	1.001220e+01	1.009482e+02
2.130000e-06	1.989436e-09	9.189006e-10	1.036091e+01	1.042623e+02
2.140000e-06	2.056225e-09	9.422115e-10	1.070860e+01	1.075688e+02
2.150000e-06	2.122825e-09	9.685833e-10	1.105530e+01	1.108676e+02
2.160000e-06	2.189207e-09	9.974915e-10	1.140086e+01	1.141583e+02
2.170000e-06	2.255380e-09	1.026343e-09	1.174532e+01	1.174408e+02
2.180000e-06	2.321339e-09	1.054203e-09	1.208866e+01	1.207149e+02
2.190000e-06	2.387059e-09	1.081187e-09	1.243075e+01	1.239802e+02
2.200000e-06	2.452524e-09	1.106703e-09	1.277152e+01	1.272365e+02
2.210000e-06	2.517750e-09	1.130772e-09	1.311106e+01	1.304836e+02
2.220000e-06	2.582770e-09	1.155182e-09	1.344951e+01	1.337214e+02
2.230000e-06	2.647604e-09	1.182293e-09	1.378699e+01	1.369494e+02
2.240000e-06	2.712262e-09	1.211064e-09	1.412356e+01	1.401676e+02
2.250000e-06	2.776749e-09	1.239304e-09	1.445924e+01	1.433756e+02
2.260000e-06	2.841088e-09	1.265586e-09	1.479416e+01	1.465732e+02
2.270000e-06	2.905284e-09	1.288824e-09	1.512836e+01	1.497603e+02
2.280000e-06	2.969316e-09	1.310214e-09	1.546174e+01	1.529365e+02
2.290000e-06	3.033196e-09	1.331830e-09	1.579434e+01	1.561017e+02
2.300000e-06	3.096935e-09	1.355789e-09	1.612617e+01	1.592556e+02
2.310000e-06	3.160496e-09	1.382540e-09	1.645704e+01	1.623980e+02
2.320000e-06	3.223849e-09	1.409821e-09	1.678685e+01	1.655286e+02
2.330000e-06	3.286999e-09	1.435964e-09	1.711561e+01	1.686473e+02
2.340000e-06	3.349916e-09	1.460212e-09	1.744315e+01	1.717538e+02
2.350000e-06	3.412582e-09	1.483476e-09	1.776936e+01	1.748479e+02
2.360000e-06	3.475018e-09	1.506743e-09	1.809439e+01	1.779293e+02
2.370000e-06	3.537211e-09	1.530482e-09	1.841816e+01	1.809979e+02
2.380000e-06	3.599140e-09	1.555204e-09	1.874055e+01	1.840534e+02
2.390000e-06	3.660802e-09	1.579898e-09	1.906155e+01	1.870956e+02
2.400000e-06	3.722202e-09	1.604512e-09	1.938118e+01	1.901243e+02
2.410000e-06	3.783358e-09	1.627818e-09	1.969956e+01	1.931392e+02
2.420000e-06	3.844285e-09	1.650441e-09	2.001674e+01	1.961402e+02
2.430000e-06	3.904998e-09	1.673487e-09	2.033279e+01	1.991269e+02
2.440000e-06	3.965512e-09	1.698077e-09	2.064782e+01	2.020993e+02
2.450000e-06	4.025848e-09	1.723787e-09	2.096195e+01	2.050571e+02
2.460000e-06	4.085992e-09	1.748063e-09	2.127505e+01	2.080001e+02
2.470000e-06	4.145888e-09	1.770437e-09	2.158686e+01	2.109280e+02
2.480000e-06	4.205466e-09	1.791865e-09	2.189700e+01	2.138407e+02
2.490000e-06	4.264627e-09	1.813125e-09	2.220495e+01	2.167379e+02
2.500000e-06	4.323305e-09	1.835657e-09	2.251040e+01	2.196194e+02
2.510000e-06	4.381483e-09	1.858941e-09	2.281322e+01	2.224851e+02
2.520000e-06	4.439160e-09	1.882172e-09	2.311344e+01	2.253347e+02
2.530000e-06	4.496398e-09	1.906821e-09	2.341138e+01	2.281680e+02
2.540000e-06	4.553282e-09	1.932017e-09	2.370748e+01	2.309848e+02
2.550000e-06	4.609874e-09	1.954743e-09	2.400207e+01	2.337849e+02
2.560000e-06	4.666237e-09	1.976652e-09	2.429548e+01	2.365681e+02
2.570000e-06	4.722374e-09	1.999579e-09	2.458774e+01	2.393342e+02
2.580000e-06	4.778228e-09	2.022877e-09	2.487854e+01	2.420830e+02
2.590000e-06	4.833781e-09	2.045436e-09	2.516773e+01	2.448143e+02
2.600000e-06	4.889022e-09	2.066382e-09	2.545529e+01	2.475279e+02
2.610000e-06	4.943946e-09	2.086794e-09	2.574120e+01	2.502236e+02
2.620000e-06	4.998542e-09	2.107295e-09	2.602542e+01	2.529012e+02
2.630000e-06	5.052791e-09	2.128548e-09	2.630784e+01	2.555606e+02
2.640000e-06	5.106678e-09	2.150688e-09	2.658833e+01	2.582014e+02
2.650000e-06	5.160182e-09	2.172521e-09	2.686683e+01	2.608236e+02
2.660000e-06	5.213278e-09	2.194255e-09	2.714322e+01	2.634269e+02
2.670000e-06	5.265968e-09	2.216070e-09	2.741750e+01	2.660112e+02
2.680000e-06	5.318273e-09	2.238143e-09	2.768978e+01	2.685763e+02
2.690000e-06	5.370132e-09	2.258599e-09	2.795976e+01	2.711219e+02
2.700000e-06	5.421482e-09	2.277030e-09	2.822705e+01	2.736480e+02
2.710000e-06	5.472284e-09	2.294822e-09	2.849148e+01	2.761543e+02
2.720000e-06	5.522467e-09	2.313208e-09	2.875270e+01	2.786405e+02
2.730000e-06	5.572050e-09	2.332909e-09	2.901075e+01	2.811067e+02
2.740000e-06	5.621132e-09	2.352660e-09	2.926621e+01	2.835525e+02
2.750000e-06	5.669816e-09	2.372816e-09	2.951963e+01	2.859779e+02
2.760000e-06	5.718179e-09	2.391756e-09	2.977139e+01	2.883825e+02
2.770000e-06	5.766221e-09	2.411950e-09	3.002149e+01	2.907663e+02
2.780000e-06	5.813903e-09	2.431509e-09	3.026968e+01	2.931291e+02
2.790000e-06	5.861159e-09	2.448455e-09	3.051564e+01	2.954707e+02
2.800000e-06	5.907967e-09	2.466230e-09	3.075932e+01	2.977909e+02
2.810000e-06	5.954369e-09	2.486122e-09	3.100086e+01	3.000896e+02
2.820000e-06	6.000375e-09	2.506086e-09	3.124033e+01	3.023666e+02
2.830000e-06	6.045976e-09	2.523004e-09	3.147772e+01	3.046218e+02
2.840000e-06	6.091176e-09	2.538452e-09	3.171301e+01	3.068549e+02
2.850000e-06	6.136021e-09	2.555586e-09	3.194647e+01	3.090659e+02
2.860000e-06	6.180573e-09	2.576183e-09	3.217841e+01	3.112545e+02
2.870000e-06	6.224851e-09	2.598386e-09	3.240892e+01	3.134205e+02
2.880000e-06	6.268815e-09	2.616818e-09	3.263779e+01	3.155640e+02
2.890000e-06	6.312311e-09	2.629839e-09	3.286421e+01	3.176846e+02
2.900000e-06	6.355157e-09	2.643543e-09	3.308720e+01	3.197823e+02
