# Temperatura_=_20.0
# Concentracion g/m^3_=_10000.0
# C_Vs_to_Am_M_A/Vsm_=_116720831517.84952
# pendiente_HvsI_1/m_=_3716.3
# ordenada_HvsI_A/m_=_1297.0
# frecuencia_Hz_=_239336.24321765872
# Promedio de 25 ciclos

Tiempo_(s)	Campo_(V.s)	Magnetizacion_(V.s)	Campo_(kA/m)	Magnetizacion_(A/m)
0.000000e+00	-8.973696e-09	-3.934381e-09	-4.584838e+01	-4.572928e+02
1.000000e-08	-8.972060e-09	-3.934018e-09	-4.584002e+01	-4.570263e+02
2.000000e-08	-8.968387e-09	-3.932181e-09	-4.582126e+01	-4.566565e+02
3.000000e-08	-8.962885e-09	-3.928071e-09	-4.579315e+01	-4.561833e+02
4.000000e-08	-8.955668e-09	-3.920526e-09	-4.575627e+01	-4.556069e+02
5.000000e-08	-8.946630e-09	-3.909407e-09	-4.571010e+01	-4.549274e+02
6.000000e-08	-8.935453e-09	-3.896954e-09	-4.565299e+01	-4.541450e+02
7.000000e-08	-8.922091e-09	-3.880795e-09	-4.558472e+01	-4.532599e+02
8.000000e-08	-8.906517e-09	-3.871380e-09	-4.550515e+01	-4.522722e+02
9.000000e-08	-8.888553e-09	-3.896025e-09	-4.541337e+01	-4.511822e+02
1.000000e-07	-8.868298e-09	-3.904074e-09	-4.530988e+01	-4.499901e+02
1.100000e-07	-8.845879e-09	-3.885205e-09	-4.519534e+01	-4.486962e+02
1.200000e-07	-8.821586e-09	-3.832588e-09	-4.507122e+01	-4.473008e+02
1.300000e-07	-8.795681e-09	-3.764940e-09	-4.493887e+01	-4.458042e+02
1.400000e-07	-8.768075e-09	-3.822577e-09	-4.479782e+01	-4.442067e+02
1.500000e-07	-8.738585e-09	-3.818263e-09	-4.464715e+01	-4.425087e+02
1.600000e-07	-8.707434e-09	-3.718171e-09	-4.448799e+01	-4.407106e+02
1.700000e-07	-8.674557e-09	-3.798297e-09	-4.432002e+01	-4.388128e+02
1.800000e-07	-8.639409e-09	-3.800252e-09	-4.414044e+01	-4.368157e+02
1.900000e-07	-8.602497e-09	-3.665371e-09	-4.395185e+01	-4.347198e+02
2.000000e-07	-8.564177e-09	-3.722481e-09	-4.375606e+01	-4.325255e+02
2.100000e-07	-8.523750e-09	-3.717464e-09	-4.354951e+01	-4.302334e+02
2.200000e-07	-8.481106e-09	-3.606204e-09	-4.333164e+01	-4.278439e+02
2.300000e-07	-8.436507e-09	-3.649258e-09	-4.310377e+01	-4.253576e+02
2.400000e-07	-8.389905e-09	-3.645659e-09	-4.286567e+01	-4.227751e+02
2.500000e-07	-8.341501e-09	-3.597482e-09	-4.261837e+01	-4.200969e+02
2.600000e-07	-8.291106e-09	-3.605973e-09	-4.236089e+01	-4.173237e+02
2.700000e-07	-8.238249e-09	-3.540474e-09	-4.209083e+01	-4.144561e+02
2.800000e-07	-8.183314e-09	-3.491124e-09	-4.181016e+01	-4.114947e+02
2.900000e-07	-8.126640e-09	-3.496183e-09	-4.152060e+01	-4.084401e+02
3.000000e-07	-8.068022e-09	-3.472575e-09	-4.122111e+01	-4.052932e+02
3.100000e-07	-8.007420e-09	-3.457386e-09	-4.091148e+01	-4.020546e+02
3.200000e-07	-7.944995e-09	-3.425908e-09	-4.059254e+01	-3.987250e+02
3.300000e-07	-7.880938e-09	-3.378855e-09	-4.026526e+01	-3.953052e+02
3.400000e-07	-7.815141e-09	-3.351293e-09	-3.992909e+01	-3.917959e+02
3.500000e-07	-7.747359e-09	-3.327470e-09	-3.958278e+01	-3.881980e+02
3.600000e-07	-7.677726e-09	-3.281942e-09	-3.922700e+01	-3.845123e+02
3.700000e-07	-7.606481e-09	-3.233253e-09	-3.886300e+01	-3.807395e+02
3.800000e-07	-7.533593e-09	-3.225946e-09	-3.849060e+01	-3.768806e+02
3.900000e-07	-7.458750e-09	-3.208034e-09	-3.810822e+01	-3.729365e+02
4.000000e-07	-7.381974e-09	-3.166723e-09	-3.771595e+01	-3.689079e+02
4.100000e-07	-7.303344e-09	-3.122213e-09	-3.731421e+01	-3.647959e+02
4.200000e-07	-7.222820e-09	-3.062937e-09	-3.690280e+01	-3.606013e+02
4.300000e-07	-7.140626e-09	-3.033618e-09	-3.648285e+01	-3.563252e+02
4.400000e-07	-7.056956e-09	-3.017622e-09	-3.605537e+01	-3.519684e+02
4.500000e-07	-6.971905e-09	-2.975595e-09	-3.562082e+01	-3.475319e+02
4.600000e-07	-6.885490e-09	-2.931934e-09	-3.517932e+01	-3.430169e+02
4.700000e-07	-6.797694e-09	-2.888270e-09	-3.473074e+01	-3.384242e+02
4.800000e-07	-6.708451e-09	-2.853073e-09	-3.427479e+01	-3.337549e+02
4.900000e-07	-6.617564e-09	-2.815501e-09	-3.381042e+01	-3.290102e+02
5.000000e-07	-6.525059e-09	-2.765461e-09	-3.333780e+01	-3.241909e+02
5.100000e-07	-6.431133e-09	-2.716561e-09	-3.285791e+01	-3.192983e+02
5.200000e-07	-6.335866e-09	-2.674910e-09	-3.237118e+01	-3.143335e+02
5.300000e-07	-6.239249e-09	-2.644535e-09	-3.187754e+01	-3.092975e+02
5.400000e-07	-6.141182e-09	-2.598986e-09	-3.137649e+01	-3.041915e+02
5.500000e-07	-6.041665e-09	-2.540767e-09	-3.086804e+01	-2.990167e+02
5.600000e-07	-5.940753e-09	-2.484798e-09	-3.035246e+01	-2.937742e+02
5.700000e-07	-5.838528e-09	-2.440254e-09	-2.983017e+01	-2.884653e+02
5.800000e-07	-5.735133e-09	-2.407500e-09	-2.930191e+01	-2.830910e+02
5.900000e-07	-5.630563e-09	-2.364490e-09	-2.876764e+01	-2.776527e+02
6.000000e-07	-5.524712e-09	-2.312733e-09	-2.822683e+01	-2.721516e+02
6.100000e-07	-5.417455e-09	-2.258918e-09	-2.767883e+01	-2.665888e+02
6.200000e-07	-5.308835e-09	-2.210323e-09	-2.712387e+01	-2.609658e+02
6.300000e-07	-5.199078e-09	-2.166408e-09	-2.656310e+01	-2.552836e+02
6.400000e-07	-5.088299e-09	-2.117159e-09	-2.599711e+01	-2.495437e+02
6.500000e-07	-4.976462e-09	-2.064272e-09	-2.542571e+01	-2.437474e+02
6.600000e-07	-4.863420e-09	-2.014443e-09	-2.484815e+01	-2.378958e+02
6.700000e-07	-4.749030e-09	-1.970402e-09	-2.426371e+01	-2.319904e+02
6.800000e-07	-4.633304e-09	-1.925225e-09	-2.367245e+01	-2.260325e+02
6.900000e-07	-4.516411e-09	-1.870072e-09	-2.307522e+01	-2.200234e+02
7.000000e-07	-4.398472e-09	-1.809175e-09	-2.247264e+01	-2.139645e+02
7.100000e-07	-4.279539e-09	-1.753791e-09	-2.186499e+01	-2.078572e+02
7.200000e-07	-4.159661e-09	-1.706141e-09	-2.125251e+01	-2.017029e+02
7.300000e-07	-4.038861e-09	-1.656725e-09	-2.063532e+01	-1.955029e+02
7.400000e-07	-3.917165e-09	-1.599091e-09	-2.001355e+01	-1.892586e+02
7.500000e-07	-3.794523e-09	-1.540476e-09	-1.938695e+01	-1.829715e+02
7.600000e-07	-3.670887e-09	-1.485682e-09	-1.875527e+01	-1.766429e+02
7.700000e-07	-3.546377e-09	-1.434597e-09	-1.811912e+01	-1.702744e+02
7.800000e-07	-3.421162e-09	-1.380416e-09	-1.747937e+01	-1.638673e+02
7.900000e-07	-3.295286e-09	-1.319725e-09	-1.683625e+01	-1.574231e+02
8.000000e-07	-3.168731e-09	-1.260797e-09	-1.618965e+01	-1.509432e+02
8.100000e-07	-3.041521e-09	-1.205158e-09	-1.553971e+01	-1.444292e+02
8.200000e-07	-2.913674e-09	-1.149234e-09	-1.488651e+01	-1.378825e+02
8.300000e-07	-2.785169e-09	-1.087591e-09	-1.422996e+01	-1.313045e+02
8.400000e-07	-2.656009e-09	-1.021438e-09	-1.357005e+01	-1.246968e+02
8.500000e-07	-2.526231e-09	-9.592514e-10	-1.290699e+01	-1.180608e+02
8.600000e-07	-2.395888e-09	-9.054659e-10	-1.224105e+01	-1.113981e+02
8.700000e-07	-2.265004e-09	-8.553617e-10	-1.157233e+01	-1.047102e+02
8.800000e-07	-2.133602e-09	-8.013020e-10	-1.090097e+01	-9.799854e+01
8.900000e-07	-2.001730e-09	-7.404411e-10	-1.022721e+01	-9.126467e+01
9.000000e-07	-1.869417e-09	-6.783413e-10	-9.551199e+00	-8.451012e+01
9.100000e-07	-1.736701e-09	-6.208681e-10	-8.873124e+00	-7.773640e+01
9.200000e-07	-1.603638e-09	-5.627998e-10	-8.193282e+00	-7.094506e+01
9.300000e-07	-1.470276e-09	-5.012896e-10	-7.511910e+00	-6.413763e+01
9.400000e-07	-1.336647e-09	-4.402574e-10	-6.829169e+00	-5.731565e+01
9.500000e-07	-1.202770e-09	-3.849266e-10	-6.145166e+00	-5.048066e+01
9.600000e-07	-1.068656e-09	-3.326046e-10	-5.459950e+00	-4.363421e+01
9.700000e-07	-9.343141e-10	-2.760878e-10	-4.773572e+00	-3.677785e+01
9.800000e-07	-7.997560e-10	-2.122788e-10	-4.086088e+00	-2.991312e+01
9.900000e-07	-6.650049e-10	-1.449194e-10	-3.397618e+00	-2.304157e+01
1.000000e-06	-5.300954e-10	-8.338653e-11	-2.708338e+00	-1.616478e+01
1.010000e-06	-3.950715e-10	-2.877091e-11	-2.018474e+00	-9.284275e+00
1.020000e-06	-2.599535e-10	2.544139e-11	-1.328129e+00	-2.401627e+00
1.030000e-06	-1.247616e-10	8.418373e-11	-6.374071e-01	4.481611e+00
1.040000e-06	1.047544e-11	1.465627e-10	5.354626e-02	1.136388e+01
1.050000e-06	1.457275e-10	2.062980e-10	7.445760e-01	1.824363e+01
1.060000e-06	2.809399e-10	2.623515e-10	1.435403e+00	2.511930e+01
1.070000e-06	4.160812e-10	3.200743e-10	2.125866e+00	3.198933e+01
1.080000e-06	5.511381e-10	3.815586e-10	2.815900e+00	3.885218e+01
1.090000e-06	6.860864e-10	4.428857e-10	3.505377e+00	4.570629e+01
1.100000e-06	8.208801e-10	4.995268e-10	4.194065e+00	5.255011e+01
1.110000e-06	9.554853e-10	5.529967e-10	4.881790e+00	5.938209e+01
1.120000e-06	1.089877e-09	6.098111e-10	5.568422e+00	6.620069e+01
1.130000e-06	1.224024e-09	6.716864e-10	6.253808e+00	7.300437e+01
1.140000e-06	1.357918e-09	7.332761e-10	6.937899e+00	7.979158e+01
1.150000e-06	1.491540e-09	7.889398e-10	7.620601e+00	8.656080e+01
1.160000e-06	1.624873e-09	8.409940e-10	8.301822e+00	9.331049e+01
1.170000e-06	1.757876e-09	8.957995e-10	8.981361e+00	1.000391e+02
1.180000e-06	1.890488e-09	9.553614e-10	9.658903e+00	1.067452e+02
1.190000e-06	2.022659e-09	1.015984e-09	1.033419e+01	1.134271e+02
1.200000e-06	2.154306e-09	1.072605e-09	1.100680e+01	1.200835e+02
1.210000e-06	2.285380e-09	1.125933e-09	1.167649e+01	1.267128e+02
1.220000e-06	2.415896e-09	1.180153e-09	1.234332e+01	1.333134e+02
1.230000e-06	2.545840e-09	1.236318e-09	1.300723e+01	1.398839e+02
1.240000e-06	2.675173e-09	1.290781e-09	1.366801e+01	1.464229e+02
1.250000e-06	2.803840e-09	1.342613e-09	1.432540e+01	1.529288e+02
1.260000e-06	2.931820e-09	1.395324e-09	1.497927e+01	1.594001e+02
1.270000e-06	3.059144e-09	1.452430e-09	1.562980e+01	1.658355e+02
1.280000e-06	3.185811e-09	1.512861e-09	1.627696e+01	1.722334e+02
1.290000e-06	3.311816e-09	1.570317e-09	1.692075e+01	1.785924e+02
1.300000e-06	3.437184e-09	1.621628e-09	1.756128e+01	1.849110e+02
1.310000e-06	3.561883e-09	1.670330e-09	1.819839e+01	1.911879e+02
1.320000e-06	3.685792e-09	1.721344e-09	1.883146e+01	1.974216e+02
1.330000e-06	3.808816e-09	1.774872e-09	1.946002e+01	2.036107e+02
1.340000e-06	3.930934e-09	1.827037e-09	2.008394e+01	2.097538e+02
1.350000e-06	4.052100e-09	1.876111e-09	2.070300e+01	2.158495e+02
1.360000e-06	4.172294e-09	1.925327e-09	2.131710e+01	2.218965e+02
1.370000e-06	4.291586e-09	1.976631e-09	2.192658e+01	2.278933e+02
1.380000e-06	4.409990e-09	2.027954e-09	2.253154e+01	2.338386e+02
1.390000e-06	4.527438e-09	2.076817e-09	2.313160e+01	2.397311e+02
1.400000e-06	4.643799e-09	2.123070e-09	2.372611e+01	2.455694e+02
1.410000e-06	4.758940e-09	2.169521e-09	2.431438e+01	2.513523e+02
1.420000e-06	4.872824e-09	2.217711e-09	2.489624e+01	2.570783e+02
1.430000e-06	4.985489e-09	2.265255e-09	2.547187e+01	2.627462e+02
1.440000e-06	5.097029e-09	2.309756e-09	2.604175e+01	2.683548e+02
1.450000e-06	5.207523e-09	2.353246e-09	2.660628e+01	2.739028e+02
1.460000e-06	5.316981e-09	2.399209e-09	2.716553e+01	2.793888e+02
1.470000e-06	5.425381e-09	2.447672e-09	2.771936e+01	2.848117e+02
1.480000e-06	5.532578e-09	2.494752e-09	2.826705e+01	2.901703e+02
1.490000e-06	5.638399e-09	2.537467e-09	2.880771e+01	2.954633e+02
1.500000e-06	5.742810e-09	2.577484e-09	2.934117e+01	3.006895e+02
1.510000e-06	5.845898e-09	2.618499e-09	2.986786e+01	3.058477e+02
1.520000e-06	5.947733e-09	2.661168e-09	3.038816e+01	3.109369e+02
1.530000e-06	6.048305e-09	2.703338e-09	3.090200e+01	3.159557e+02
1.540000e-06	6.147466e-09	2.744335e-09	3.140864e+01	3.209032e+02
1.550000e-06	6.245056e-09	2.784446e-09	3.190724e+01	3.257781e+02
1.560000e-06	6.341118e-09	2.824135e-09	3.239804e+01	3.305794e+02
1.570000e-06	6.435781e-09	2.862569e-09	3.288170e+01	3.353060e+02
1.580000e-06	6.529136e-09	2.898577e-09	3.335866e+01	3.399569e+02
1.590000e-06	6.621160e-09	2.934048e-09	3.382883e+01	3.445309e+02
1.600000e-06	6.711649e-09	2.970789e-09	3.429116e+01	3.490270e+02
1.610000e-06	6.800470e-09	3.007783e-09	3.474496e+01	3.534442e+02
1.620000e-06	6.887711e-09	3.042287e-09	3.519069e+01	3.577816e+02
1.630000e-06	6.973504e-09	3.073458e-09	3.562902e+01	3.620381e+02
1.640000e-06	7.057913e-09	3.103461e-09	3.606029e+01	3.662128e+02
1.650000e-06	7.140817e-09	3.135065e-09	3.648386e+01	3.703047e+02
1.660000e-06	7.222042e-09	3.168468e-09	3.689885e+01	3.743129e+02
1.670000e-06	7.301593e-09	3.200611e-09	3.730530e+01	3.782365e+02
1.680000e-06	7.379515e-09	3.231501e-09	3.770341e+01	3.820746e+02
1.690000e-06	7.455761e-09	3.261903e-09	3.809297e+01	3.858264e+02
1.700000e-06	7.530172e-09	3.290774e-09	3.847315e+01	3.894909e+02
1.710000e-06	7.602732e-09	3.317552e-09	3.884387e+01	3.930674e+02
1.720000e-06	7.673586e-09	3.343493e-09	3.920588e+01	3.965551e+02
1.730000e-06	7.742830e-09	3.369538e-09	3.955966e+01	3.999532e+02
1.740000e-06	7.810427e-09	3.395032e-09	3.990503e+01	4.032608e+02
1.750000e-06	7.876174e-09	3.419947e-09	4.024094e+01	4.064773e+02
1.760000e-06	7.940101e-09	3.444485e-09	4.056755e+01	4.096020e+02
1.770000e-06	8.002397e-09	3.469041e-09	4.088584e+01	4.126340e+02
1.780000e-06	8.063117e-09	3.493325e-09	4.119607e+01	4.155728e+02
1.790000e-06	8.122087e-09	3.516798e-09	4.149736e+01	4.184176e+02
1.800000e-06	8.179106e-09	3.538432e-09	4.178868e+01	4.211679e+02
1.810000e-06	8.234244e-09	3.557976e-09	4.207039e+01	4.238230e+02
1.820000e-06	8.287478e-09	3.576732e-09	4.234237e+01	4.263822e+02
1.830000e-06	8.338522e-09	3.595690e-09	4.260317e+01	4.288451e+02
1.840000e-06	8.387379e-09	3.615124e-09	4.285278e+01	4.312111e+02
1.850000e-06	8.434350e-09	3.634022e-09	4.309277e+01	4.334796e+02
1.860000e-06	8.479619e-09	3.651257e-09	4.332406e+01	4.356501e+02
1.870000e-06	8.523077e-09	3.668074e-09	4.354609e+01	4.377222e+02
1.880000e-06	8.564479e-09	3.685305e-09	4.375762e+01	4.396953e+02
1.890000e-06	8.603917e-09	3.701495e-09	4.395912e+01	4.415690e+02
1.900000e-06	8.641589e-09	3.715396e-09	4.415159e+01	4.433429e+02
1.910000e-06	8.677432e-09	3.727422e-09	4.433472e+01	4.450166e+02
1.920000e-06	8.711221e-09	3.740294e-09	4.450736e+01	4.465897e+02
1.930000e-06	8.742999e-09	3.754081e-09	4.466971e+01	4.480618e+02
1.940000e-06	8.772977e-09	3.766474e-09	4.482288e+01	4.494327e+02
1.950000e-06	8.801138e-09	3.776114e-09	4.496676e+01	4.507020e+02
1.960000e-06	8.827187e-09	3.783344e-09	4.509985e+01	4.518694e+02
1.970000e-06	8.851060e-09	3.792024e-09	4.522182e+01	4.529347e+02
1.980000e-06	8.873038e-09	3.803168e-09	4.533411e+01	4.538976e+02
1.990000e-06	8.893241e-09	3.813109e-09	4.543733e+01	4.547578e+02
2.000000e-06	8.911499e-09	3.819708e-09	4.553061e+01	4.555153e+02
2.010000e-06	8.927640e-09	3.824551e-09	4.561308e+01	4.561699e+02
2.020000e-06	8.941727e-09	3.829826e-09	4.568505e+01	4.567213e+02
2.030000e-06	8.953668e-09	3.836208e-09	4.574606e+01	4.571695e+02
2.040000e-06	8.963337e-09	3.842021e-09	4.579546e+01	4.575143e+02
2.050000e-06	8.970934e-09	3.846069e-09	4.583427e+01	4.577557e+02
2.060000e-06	8.976685e-09	3.849075e-09	4.586366e+01	4.578937e+02
2.070000e-06	8.980547e-09	3.851667e-09	4.588339e+01	4.579281e+02
2.080000e-06	8.982331e-09	3.853509e-09	4.589251e+01	4.578591e+02
2.090000e-06	8.982109e-09	3.852716e-09	4.589137e+01	4.576865e+02
2.100000e-06	8.980115e-09	3.847137e-09	4.588118e+01	4.574105e+02
2.110000e-06	8.976362e-09	3.841316e-09	4.586201e+01	4.570311e+02
2.120000e-06	8.970617e-09	3.838438e-09	4.583265e+01	4.565484e+02
2.130000e-06	8.962872e-09	3.836296e-09	4.579308e+01	4.559625e+02
2.140000e-06	8.953321e-09	3.833857e-09	4.574428e+01	4.552735e+02
2.150000e-06	8.941869e-09	3.832928e-09	4.568577e+01	4.544816e+02
2.160000e-06	8.928311e-09	3.841360e-09	4.561650e+01	4.535870e+02
2.170000e-06	8.912772e-09	3.812284e-09	4.553711e+01	4.525898e+02
2.180000e-06	8.895196e-09	3.769022e-09	4.544731e+01	4.514904e+02
2.190000e-06	8.874825e-09	3.759623e-09	4.534323e+01	4.502889e+02
2.200000e-06	8.851438e-09	3.777817e-09	4.522374e+01	4.489856e+02
2.210000e-06	8.826088e-09	3.836725e-09	4.509422e+01	4.475808e+02
2.220000e-06	8.800001e-09	3.780752e-09	4.496094e+01	4.460748e+02
2.230000e-06	8.772871e-09	3.711813e-09	4.482233e+01	4.444680e+02
2.240000e-06	8.743271e-09	3.803747e-09	4.467109e+01	4.427608e+02
2.250000e-06	8.711550e-09	3.731530e-09	4.450902e+01	4.409535e+02
2.260000e-06	8.678620e-09	3.650917e-09	4.434078e+01	4.390465e+02
2.270000e-06	8.643355e-09	3.784988e-09	4.416060e+01	4.370402e+02
2.280000e-06	8.605588e-09	3.712806e-09	4.396764e+01	4.349352e+02
2.290000e-06	8.566322e-09	3.614412e-09	4.376702e+01	4.327318e+02
2.300000e-06	8.525183e-09	3.720059e-09	4.355684e+01	4.304307e+02
2.310000e-06	8.482236e-09	3.656338e-09	4.333741e+01	4.280322e+02
2.320000e-06	8.437834e-09	3.597237e-09	4.311055e+01	4.255370e+02
2.330000e-06	8.391233e-09	3.628499e-09	4.287246e+01	4.229456e+02
2.340000e-06	8.342510e-09	3.530989e-09	4.262352e+01	4.202587e+02
2.350000e-06	8.291917e-09	3.556715e-09	4.236503e+01	4.174767e+02
2.360000e-06	8.238995e-09	3.583144e-09	4.209464e+01	4.146003e+02
2.370000e-06	8.184022e-09	3.501247e-09	4.181377e+01	4.116303e+02
2.380000e-06	8.127192e-09	3.518491e-09	4.152342e+01	4.085672e+02
2.390000e-06	8.068572e-09	3.447349e-09	4.122392e+01	4.054117e+02
2.400000e-06	8.008382e-09	3.392088e-09	4.091639e+01	4.021647e+02
2.410000e-06	7.946152e-09	3.435605e-09	4.059845e+01	3.988267e+02
2.420000e-06	7.881887e-09	3.376099e-09	4.027011e+01	3.953985e+02
2.430000e-06	7.815937e-09	3.354908e-09	3.993315e+01	3.918810e+02
2.440000e-06	7.748237e-09	3.334003e-09	3.958726e+01	3.882750e+02
2.450000e-06	7.678680e-09	3.295336e-09	3.923187e+01	3.845811e+02
2.460000e-06	7.607222e-09	3.282924e-09	3.886678e+01	3.808004e+02
2.470000e-06	7.534083e-09	3.214998e-09	3.849310e+01	3.769336e+02
2.480000e-06	7.459147e-09	3.193902e-09	3.811024e+01	3.729815e+02
2.490000e-06	7.382199e-09	3.155697e-09	3.771710e+01	3.689452e+02
2.500000e-06	7.303491e-09	3.132228e-09	3.731496e+01	3.648255e+02
2.510000e-06	7.223114e-09	3.131793e-09	3.690430e+01	3.606233e+02
2.520000e-06	7.141228e-09	3.057652e-09	3.648593e+01	3.563396e+02
2.530000e-06	7.057904e-09	3.028218e-09	3.606021e+01	3.519754e+02
2.540000e-06	6.972924e-09	2.979487e-09	3.562603e+01	3.475316e+02
2.550000e-06	6.886314e-09	2.940814e-09	3.518352e+01	3.430093e+02
2.560000e-06	6.798120e-09	2.929960e-09	3.473292e+01	3.384095e+02
2.570000e-06	6.708502e-09	2.870650e-09	3.427505e+01	3.337332e+02
2.580000e-06	6.617523e-09	2.844027e-09	3.381022e+01	3.289814e+02
2.590000e-06	6.525029e-09	2.799199e-09	3.333764e+01	3.241553e+02
2.600000e-06	6.431027e-09	2.758180e-09	3.285737e+01	3.192560e+02
2.610000e-06	6.335576e-09	2.723206e-09	3.236969e+01	3.142844e+02
2.620000e-06	6.238800e-09	2.664762e-09	3.187524e+01	3.092419e+02
2.630000e-06	6.140719e-09	2.633387e-09	3.137413e+01	3.041295e+02
2.640000e-06	6.041299e-09	2.591068e-09	3.086617e+01	2.989483e+02
2.650000e-06	5.940478e-09	2.559169e-09	3.035106e+01	2.936996e+02
2.660000e-06	5.838157e-09	2.516514e-09	2.982828e+01	2.883845e+02
2.670000e-06	5.734494e-09	2.459428e-09	2.929865e+01	2.830042e+02
2.680000e-06	5.629596e-09	2.418242e-09	2.876270e+01	2.775600e+02
2.690000e-06	5.523552e-09	2.368301e-09	2.822090e+01	2.720531e+02
2.700000e-06	5.416400e-09	2.334621e-09	2.767343e+01	2.664847e+02
2.710000e-06	5.308081e-09	2.290181e-09	2.712001e+01	2.608560e+02
2.720000e-06	5.198541e-09	2.236722e-09	2.656035e+01	2.551684e+02
2.730000e-06	5.087681e-09	2.190410e-09	2.599395e+01	2.494232e+02
2.740000e-06	4.975632e-09	2.139600e-09	2.542147e+01	2.436216e+02
2.750000e-06	4.862384e-09	2.096903e-09	2.484286e+01	2.377649e+02
2.760000e-06	4.747898e-09	2.042561e-09	2.425793e+01	2.318545e+02
2.770000e-06	4.632208e-09	1.988969e-09	2.366685e+01	2.258918e+02
2.780000e-06	4.515262e-09	1.942481e-09	2.306934e+01	2.198780e+02
2.790000e-06	4.397119e-09	1.897131e-09	2.246573e+01	2.138145e+02
2.800000e-06	4.277843e-09	1.853381e-09	2.185633e+01	2.077027e+02
2.810000e-06	4.157627e-09	1.797033e-09	2.124212e+01	2.015440e+02
2.820000e-06	4.036565e-09	1.739731e-09	2.062359e+01	1.953397e+02
2.830000e-06	3.914663e-09	1.685565e-09	2.000076e+01	1.890913e+02
2.840000e-06	3.791947e-09	1.636173e-09	1.937379e+01	1.828002e+02
2.850000e-06	3.668393e-09	1.587706e-09	1.874252e+01	1.764678e+02
2.860000e-06	3.544053e-09	1.530299e-09	1.810725e+01	1.700956e+02
2.870000e-06	3.418923e-09	1.474501e-09	1.746793e+01	1.636849e+02
2.880000e-06	3.292972e-09	1.420378e-09	1.682442e+01	1.572373e+02
2.890000e-06	3.166166e-09	1.368217e-09	1.617655e+01	1.507541e+02
2.900000e-06	3.038555e-09	1.316013e-09	1.552456e+01	1.442369e+02
2.910000e-06	2.910344e-09	1.259364e-09	1.486950e+01	1.376871e+02
2.920000e-06	2.781596e-09	1.205191e-09	1.421170e+01	1.311062e+02
2.930000e-06	2.652305e-09	1.150758e-09	1.355112e+01	1.244957e+02
2.940000e-06	2.522507e-09	1.095417e-09	1.288796e+01	1.178571e+02
2.950000e-06	2.392224e-09	1.036712e-09	1.222232e+01	1.111919e+02
