# Temperatura_=_20.0
# Concentracion g/m^3_=_10000.0
# C_Vs_to_Am_M_A/Vsm_=_116720831517.84952
# pendiente_HvsI_1/m_=_3716.3
# ordenada_HvsI_A/m_=_1297.0
# frecuencia_Hz_=_310401.80724671966
# Promedio de 25 ciclos

Tiempo_(s)	Campo_(V.s)	Magnetizacion_(V.s)	Campo_(kA/m)	Magnetizacion_(A/m)
0.000000e+00	-1.007473e-08	-4.321512e-09	-4.931949e+01	-5.050802e+02
1.000000e-08	-1.007113e-08	-4.318507e-09	-4.930189e+01	-5.047258e+02
2.000000e-08	-1.006403e-08	-4.310161e-09	-4.926711e+01	-5.041791e+02
3.000000e-08	-1.005325e-08	-4.300914e-09	-4.921435e+01	-5.034401e+02
4.000000e-08	-1.003859e-08	-4.292115e-09	-4.914255e+01	-5.025092e+02
5.000000e-08	-1.002035e-08	-4.279453e-09	-4.905327e+01	-5.013867e+02
6.000000e-08	-9.998906e-09	-4.263623e-09	-4.894830e+01	-5.000731e+02
7.000000e-08	-9.974296e-09	-4.245613e-09	-4.882783e+01	-4.985688e+02
8.000000e-08	-9.946221e-09	-4.237759e-09	-4.869039e+01	-4.968744e+02
9.000000e-08	-9.914207e-09	-4.261380e-09	-4.853367e+01	-4.949906e+02
1.000000e-07	-9.877947e-09	-4.246296e-09	-4.835616e+01	-4.929181e+02
1.100000e-07	-9.837527e-09	-4.195627e-09	-4.815829e+01	-4.906576e+02
1.200000e-07	-9.793235e-09	-4.168422e-09	-4.794146e+01	-4.882101e+02
1.300000e-07	-9.745352e-09	-4.138451e-09	-4.770706e+01	-4.855764e+02
1.400000e-07	-9.694067e-09	-4.074920e-09	-4.745600e+01	-4.827576e+02
1.500000e-07	-9.639621e-09	-4.051946e-09	-4.718946e+01	-4.797547e+02
1.600000e-07	-9.581748e-09	-4.111956e-09	-4.690616e+01	-4.765689e+02
1.700000e-07	-9.520296e-09	-4.045241e-09	-4.660532e+01	-4.732013e+02
1.800000e-07	-9.455571e-09	-4.029219e-09	-4.628847e+01	-4.696534e+02
1.900000e-07	-9.387277e-09	-4.040032e-09	-4.595415e+01	-4.659263e+02
2.000000e-07	-9.315426e-09	-3.925353e-09	-4.560241e+01	-4.620216e+02
2.100000e-07	-9.239896e-09	-3.905939e-09	-4.523266e+01	-4.579407e+02
2.200000e-07	-9.160247e-09	-3.864368e-09	-4.484275e+01	-4.536851e+02
2.300000e-07	-9.076986e-09	-3.821470e-09	-4.443516e+01	-4.492566e+02
2.400000e-07	-8.990397e-09	-3.822702e-09	-4.401127e+01	-4.446567e+02
2.500000e-07	-8.900383e-09	-3.785514e-09	-4.357062e+01	-4.398872e+02
2.600000e-07	-8.806956e-09	-3.749132e-09	-4.311326e+01	-4.349500e+02
2.700000e-07	-8.710108e-09	-3.684549e-09	-4.263915e+01	-4.298469e+02
2.800000e-07	-8.609977e-09	-3.627765e-09	-4.214897e+01	-4.245799e+02
2.900000e-07	-8.506481e-09	-3.574000e-09	-4.164232e+01	-4.191508e+02
3.000000e-07	-8.399635e-09	-3.530787e-09	-4.111927e+01	-4.135620e+02
3.100000e-07	-8.289519e-09	-3.505363e-09	-4.058021e+01	-4.078153e+02
3.200000e-07	-8.176148e-09	-3.445724e-09	-4.002522e+01	-4.019131e+02
3.300000e-07	-8.059424e-09	-3.410157e-09	-3.945381e+01	-3.958576e+02
3.400000e-07	-7.939381e-09	-3.348525e-09	-3.886616e+01	-3.896510e+02
3.500000e-07	-7.816330e-09	-3.271124e-09	-3.826378e+01	-3.832958e+02
3.600000e-07	-7.690291e-09	-3.214619e-09	-3.764677e+01	-3.767944e+02
3.700000e-07	-7.561314e-09	-3.153508e-09	-3.701538e+01	-3.701491e+02
3.800000e-07	-7.429432e-09	-3.112131e-09	-3.636977e+01	-3.633627e+02
3.900000e-07	-7.294660e-09	-3.062308e-09	-3.571001e+01	-3.564375e+02
4.000000e-07	-7.156973e-09	-3.004003e-09	-3.503598e+01	-3.493764e+02
4.100000e-07	-7.016245e-09	-2.931562e-09	-3.434706e+01	-3.421818e+02
4.200000e-07	-6.872685e-09	-2.855929e-09	-3.364428e+01	-3.348567e+02
4.300000e-07	-6.726502e-09	-2.789861e-09	-3.292866e+01	-3.274038e+02
4.400000e-07	-6.577876e-09	-2.722978e-09	-3.220108e+01	-3.198258e+02
4.500000e-07	-6.426837e-09	-2.665204e-09	-3.146169e+01	-3.121258e+02
4.600000e-07	-6.273297e-09	-2.605115e-09	-3.071006e+01	-3.043066e+02
4.700000e-07	-6.117344e-09	-2.541676e-09	-2.994661e+01	-2.963711e+02
4.800000e-07	-5.959086e-09	-2.470521e-09	-2.917188e+01	-2.883225e+02
4.900000e-07	-5.798609e-09	-2.386176e-09	-2.838629e+01	-2.801637e+02
5.000000e-07	-5.635882e-09	-2.302371e-09	-2.758968e+01	-2.718980e+02
5.100000e-07	-5.470927e-09	-2.225554e-09	-2.678216e+01	-2.635283e+02
5.200000e-07	-5.303799e-09	-2.158404e-09	-2.596401e+01	-2.550579e+02
5.300000e-07	-5.134574e-09	-2.095232e-09	-2.513559e+01	-2.464901e+02
5.400000e-07	-4.963394e-09	-2.025149e-09	-2.429760e+01	-2.378280e+02
5.500000e-07	-4.790351e-09	-1.948142e-09	-2.345049e+01	-2.290751e+02
5.600000e-07	-4.615484e-09	-1.863210e-09	-2.259445e+01	-2.202345e+02
5.700000e-07	-4.438689e-09	-1.777789e-09	-2.172897e+01	-2.113097e+02
5.800000e-07	-4.259990e-09	-1.696658e-09	-2.085418e+01	-2.023040e+02
5.900000e-07	-4.079547e-09	-1.619456e-09	-1.997084e+01	-1.932209e+02
6.000000e-07	-3.897393e-09	-1.547192e-09	-1.907913e+01	-1.840639e+02
6.100000e-07	-3.713637e-09	-1.470793e-09	-1.817958e+01	-1.748363e+02
6.200000e-07	-3.528445e-09	-1.390812e-09	-1.727300e+01	-1.655418e+02
6.300000e-07	-3.341922e-09	-1.305254e-09	-1.635990e+01	-1.561839e+02
6.400000e-07	-3.154165e-09	-1.219323e-09	-1.544076e+01	-1.467661e+02
6.500000e-07	-2.965236e-09	-1.135387e-09	-1.451588e+01	-1.372919e+02
6.600000e-07	-2.775191e-09	-1.052736e-09	-1.358554e+01	-1.277651e+02
6.700000e-07	-2.584117e-09	-9.743635e-10	-1.265016e+01	-1.181892e+02
6.800000e-07	-2.392101e-09	-8.930865e-10	-1.171017e+01	-1.085679e+02
6.900000e-07	-2.199218e-09	-8.105728e-10	-1.076594e+01	-9.890482e+01
7.000000e-07	-2.005525e-09	-7.226551e-10	-9.817739e+00	-8.920363e+01
7.100000e-07	-1.811081e-09	-6.338206e-10	-8.865865e+00	-7.946803e+01
7.200000e-07	-1.615940e-09	-5.496816e-10	-7.910581e+00	-6.970172e+01
7.300000e-07	-1.420197e-09	-4.686341e-10	-6.952344e+00	-5.990842e+01
7.400000e-07	-1.223932e-09	-3.905396e-10	-5.991556e+00	-5.009185e+01
7.500000e-07	-1.027180e-09	-3.102457e-10	-5.028386e+00	-4.025574e+01
7.600000e-07	-8.300104e-10	-2.276102e-10	-4.063166e+00	-3.040383e+01
7.700000e-07	-6.325079e-10	-1.409754e-10	-3.096318e+00	-2.053988e+01
7.800000e-07	-4.347517e-10	-5.389737e-11	-2.128229e+00	-1.066762e+01
7.900000e-07	-2.368412e-10	3.323514e-11	-1.159385e+00	-7.908228e-01
8.000000e-07	-3.883977e-11	1.184772e-10	-1.900948e-01	9.086765e+00
8.100000e-07	1.592047e-10	1.981809e-10	7.794055e-01	1.896139e+01
8.200000e-07	3.572045e-10	2.766272e-10	1.748687e+00	2.882928e+01
8.300000e-07	5.551047e-10	3.570206e-10	2.717481e+00	3.868671e+01
8.400000e-07	7.528348e-10	4.409381e-10	3.685443e+00	4.852991e+01
8.500000e-07	9.502842e-10	5.269755e-10	4.652030e+00	5.835514e+01
8.600000e-07	1.147378e-09	6.110242e-10	5.616876e+00	6.815868e+01
8.700000e-07	1.344040e-09	6.906597e-10	6.579612e+00	7.793678e+01
8.800000e-07	1.540202e-09	7.698498e-10	7.539893e+00	8.768573e+01
8.900000e-07	1.735803e-09	8.499157e-10	8.497433e+00	9.740183e+01
9.000000e-07	1.930765e-09	9.293590e-10	9.451845e+00	1.070814e+02
9.100000e-07	2.124999e-09	1.007784e-09	1.040269e+01	1.167207e+02
9.200000e-07	2.318449e-09	1.087128e-09	1.134970e+01	1.263161e+02
9.300000e-07	2.511051e-09	1.167990e-09	1.229256e+01	1.358640e+02
9.400000e-07	2.702704e-09	1.248907e-09	1.323077e+01	1.453607e+02
9.500000e-07	2.893331e-09	1.327879e-09	1.416395e+01	1.548026e+02
9.600000e-07	3.082856e-09	1.404066e-09	1.509175e+01	1.641861e+02
9.700000e-07	3.271181e-09	1.481228e-09	1.601367e+01	1.735077e+02
9.800000e-07	3.458250e-09	1.560364e-09	1.692944e+01	1.827638e+02
9.900000e-07	3.644012e-09	1.641082e-09	1.783882e+01	1.919509e+02
1.000000e-06	3.828350e-09	1.719340e-09	1.874121e+01	2.010655e+02
1.010000e-06	4.011139e-09	1.793940e-09	1.963604e+01	2.101041e+02
1.020000e-06	4.192278e-09	1.868070e-09	2.052278e+01	2.190633e+02
1.030000e-06	4.371714e-09	1.941726e-09	2.140118e+01	2.279396e+02
1.040000e-06	4.549407e-09	2.015929e-09	2.227105e+01	2.367298e+02
1.050000e-06	4.725303e-09	2.088540e-09	2.313213e+01	2.454305e+02
1.060000e-06	4.899392e-09	2.159878e-09	2.398435e+01	2.540383e+02
1.070000e-06	5.071641e-09	2.232087e-09	2.482758e+01	2.625500e+02
1.080000e-06	5.242005e-09	2.304347e-09	2.566157e+01	2.709624e+02
1.090000e-06	5.410416e-09	2.375115e-09	2.648600e+01	2.792722e+02
1.100000e-06	5.576807e-09	2.442786e-09	2.730055e+01	2.874763e+02
1.110000e-06	5.741103e-09	2.508569e-09	2.810484e+01	2.955715e+02
1.120000e-06	5.903239e-09	2.574565e-09	2.889855e+01	3.035549e+02
1.130000e-06	6.063182e-09	2.641386e-09	2.968153e+01	3.114233e+02
1.140000e-06	6.220891e-09	2.707490e-09	3.045357e+01	3.191738e+02
1.150000e-06	6.376272e-09	2.772500e-09	3.121422e+01	3.268034e+02
1.160000e-06	6.529178e-09	2.836901e-09	3.196275e+01	3.343092e+02
1.170000e-06	6.679553e-09	2.901399e-09	3.269889e+01	3.416883e+02
1.180000e-06	6.827409e-09	2.966102e-09	3.342270e+01	3.489381e+02
1.190000e-06	6.972671e-09	3.028392e-09	3.413381e+01	3.560556e+02
1.200000e-06	7.115214e-09	3.087739e-09	3.483161e+01	3.630382e+02
1.210000e-06	7.254920e-09	3.146006e-09	3.551552e+01	3.698832e+02
1.220000e-06	7.391720e-09	3.204051e-09	3.618521e+01	3.765881e+02
1.230000e-06	7.525674e-09	3.261306e-09	3.684096e+01	3.831503e+02
1.240000e-06	7.656791e-09	3.316545e-09	3.748282e+01	3.895672e+02
1.250000e-06	7.784994e-09	3.369740e-09	3.811043e+01	3.958365e+02
1.260000e-06	7.910293e-09	3.422987e-09	3.872381e+01	4.019558e+02
1.270000e-06	8.032620e-09	3.476893e-09	3.932264e+01	4.079227e+02
1.280000e-06	8.151833e-09	3.529624e-09	3.990623e+01	4.137349e+02
1.290000e-06	8.267743e-09	3.579517e-09	4.047366e+01	4.193903e+02
1.300000e-06	8.380289e-09	3.626816e-09	4.102461e+01	4.248868e+02
1.310000e-06	8.489654e-09	3.672965e-09	4.155999e+01	4.302221e+02
1.320000e-06	8.595853e-09	3.717404e-09	4.207987e+01	4.353943e+02
1.330000e-06	8.698786e-09	3.760533e-09	4.258377e+01	4.404015e+02
1.340000e-06	8.798371e-09	3.801519e-09	4.307127e+01	4.452416e+02
1.350000e-06	8.894547e-09	3.841888e-09	4.354209e+01	4.499130e+02
1.360000e-06	8.987411e-09	3.882766e-09	4.399669e+01	4.544137e+02
1.370000e-06	9.076951e-09	3.922718e-09	4.443502e+01	4.587421e+02
1.380000e-06	9.163180e-09	3.960823e-09	4.485714e+01	4.628966e+02
1.390000e-06	9.246095e-09	3.995834e-09	4.526304e+01	4.668755e+02
1.400000e-06	9.325487e-09	4.029347e-09	4.565169e+01	4.706774e+02
1.410000e-06	9.401186e-09	4.061053e-09	4.602226e+01	4.743007e+02
1.420000e-06	9.473229e-09	4.089620e-09	4.637494e+01	4.777442e+02
1.430000e-06	9.541758e-09	4.114914e-09	4.671042e+01	4.810065e+02
1.440000e-06	9.606710e-09	4.137609e-09	4.702838e+01	4.840864e+02
1.450000e-06	9.668100e-09	4.161419e-09	4.732890e+01	4.869827e+02
1.460000e-06	9.725911e-09	4.187116e-09	4.761191e+01	4.896943e+02
1.470000e-06	9.779873e-09	4.211026e-09	4.787607e+01	4.922202e+02
1.480000e-06	9.829748e-09	4.231680e-09	4.812023e+01	4.945593e+02
1.490000e-06	9.875738e-09	4.247245e-09	4.834536e+01	4.967109e+02
1.500000e-06	9.918019e-09	4.259398e-09	4.855235e+01	4.986741e+02
1.510000e-06	9.956564e-09	4.269827e-09	4.874104e+01	5.004481e+02
1.520000e-06	9.991402e-09	4.280066e-09	4.891158e+01	5.020323e+02
1.530000e-06	1.002255e-08	4.290860e-09	4.906405e+01	5.034261e+02
1.540000e-06	1.004995e-08	4.300468e-09	4.919819e+01	5.046290e+02
1.550000e-06	1.007352e-08	4.310363e-09	4.931357e+01	5.056404e+02
1.560000e-06	1.009340e-08	4.318615e-09	4.941088e+01	5.064600e+02
1.570000e-06	1.010945e-08	4.324121e-09	4.948949e+01	5.070876e+02
1.580000e-06	1.012140e-08	4.325320e-09	4.954798e+01	5.075227e+02
1.590000e-06	1.012933e-08	4.322415e-09	4.958678e+01	5.077654e+02
1.600000e-06	1.013344e-08	4.320129e-09	4.960691e+01	5.078155e+02
1.610000e-06	1.013382e-08	4.320329e-09	4.960878e+01	5.076729e+02
1.620000e-06	1.013063e-08	4.316921e-09	4.959313e+01	5.073378e+02
1.630000e-06	1.012386e-08	4.313673e-09	4.956000e+01	5.068102e+02
1.640000e-06	1.011339e-08	4.310105e-09	4.950873e+01	5.060904e+02
1.650000e-06	1.009917e-08	4.302090e-09	4.943912e+01	5.051786e+02
1.660000e-06	1.008151e-08	4.293439e-09	4.935267e+01	5.040752e+02
1.670000e-06	1.006061e-08	4.287068e-09	4.925038e+01	5.027806e+02
1.680000e-06	1.003640e-08	4.283674e-09	4.913187e+01	5.012952e+02
1.690000e-06	1.000889e-08	4.242308e-09	4.899717e+01	4.996198e+02
1.700000e-06	9.977336e-09	4.191465e-09	4.884271e+01	4.977548e+02
1.710000e-06	9.940835e-09	4.195369e-09	4.866402e+01	4.957010e+02
1.720000e-06	9.899777e-09	4.194477e-09	4.846303e+01	4.934592e+02
1.730000e-06	9.855270e-09	4.176205e-09	4.824515e+01	4.910302e+02
1.740000e-06	9.807666e-09	4.211386e-09	4.801211e+01	4.884150e+02
1.750000e-06	9.757231e-09	4.185039e-09	4.776521e+01	4.856146e+02
1.760000e-06	9.703933e-09	4.065712e-09	4.750430e+01	4.826299e+02
1.770000e-06	9.646854e-09	4.096805e-09	4.722487e+01	4.794622e+02
1.780000e-06	9.585970e-09	4.051779e-09	4.692682e+01	4.761127e+02
1.790000e-06	9.521612e-09	3.997474e-09	4.661177e+01	4.725825e+02
1.800000e-06	9.453239e-09	4.068010e-09	4.627706e+01	4.688732e+02
1.810000e-06	9.381081e-09	3.981325e-09	4.592382e+01	4.649860e+02
1.820000e-06	9.305186e-09	3.982333e-09	4.555228e+01	4.609225e+02
1.830000e-06	9.225429e-09	3.951848e-09	4.516184e+01	4.566842e+02
1.840000e-06	9.142441e-09	3.861268e-09	4.475558e+01	4.522727e+02
1.850000e-06	9.055857e-09	3.854970e-09	4.433172e+01	4.476897e+02
1.860000e-06	8.965782e-09	3.762433e-09	4.389077e+01	4.429369e+02
1.870000e-06	8.872361e-09	3.758158e-09	4.343344e+01	4.380161e+02
1.880000e-06	8.775412e-09	3.740032e-09	4.295884e+01	4.329293e+02
1.890000e-06	8.675195e-09	3.701638e-09	4.246824e+01	4.276783e+02
1.900000e-06	8.571516e-09	3.671242e-09	4.196069e+01	4.222652e+02
1.910000e-06	8.464704e-09	3.566906e-09	4.143781e+01	4.166919e+02
1.920000e-06	8.354706e-09	3.534828e-09	4.089933e+01	4.109607e+02
1.930000e-06	8.241330e-09	3.461517e-09	4.034431e+01	4.050737e+02
1.940000e-06	8.124601e-09	3.428931e-09	3.977287e+01	3.990331e+02
1.950000e-06	8.004357e-09	3.401973e-09	3.918424e+01	3.928412e+02
1.960000e-06	7.881095e-09	3.331710e-09	3.858082e+01	3.865005e+02
1.970000e-06	7.754882e-09	3.297027e-09	3.796296e+01	3.800132e+02
1.980000e-06	7.625813e-09	3.221329e-09	3.733112e+01	3.733819e+02
1.990000e-06	7.493968e-09	3.158101e-09	3.668569e+01	3.666090e+02
2.000000e-06	7.359131e-09	3.081814e-09	3.602562e+01	3.596973e+02
2.010000e-06	7.221433e-09	3.019818e-09	3.535153e+01	3.526492e+02
2.020000e-06	7.080804e-09	2.982950e-09	3.466310e+01	3.454675e+02
2.030000e-06	6.937419e-09	2.931736e-09	3.396118e+01	3.381549e+02
2.040000e-06	6.791457e-09	2.875751e-09	3.324664e+01	3.307141e+02
2.050000e-06	6.642949e-09	2.789309e-09	3.251964e+01	3.231481e+02
2.060000e-06	6.491946e-09	2.705954e-09	3.178042e+01	3.154597e+02
2.070000e-06	6.338478e-09	2.637716e-09	3.102914e+01	3.076517e+02
2.080000e-06	6.182619e-09	2.575206e-09	3.026615e+01	2.997273e+02
2.090000e-06	6.024313e-09	2.522615e-09	2.949119e+01	2.916893e+02
2.100000e-06	5.863681e-09	2.455139e-09	2.870483e+01	2.835409e+02
2.110000e-06	5.700825e-09	2.383641e-09	2.790759e+01	2.752851e+02
2.120000e-06	5.535804e-09	2.309174e-09	2.709975e+01	2.669251e+02
2.130000e-06	5.368755e-09	2.226242e-09	2.628199e+01	2.584641e+02
2.140000e-06	5.199671e-09	2.145079e-09	2.545426e+01	2.499053e+02
2.150000e-06	5.028627e-09	2.061197e-09	2.461693e+01	2.412518e+02
2.160000e-06	4.855634e-09	1.994711e-09	2.377007e+01	2.325071e+02
2.170000e-06	4.680752e-09	1.931239e-09	2.291396e+01	2.236745e+02
2.180000e-06	4.504017e-09	1.863588e-09	2.204878e+01	2.147573e+02
2.190000e-06	4.325389e-09	1.780868e-09	2.117433e+01	2.057588e+02
2.200000e-06	4.145025e-09	1.684707e-09	2.029138e+01	1.966826e+02
2.210000e-06	3.962941e-09	1.598751e-09	1.940001e+01	1.875320e+02
2.220000e-06	3.779264e-09	1.519583e-09	1.850085e+01	1.783106e+02
2.230000e-06	3.594073e-09	1.449684e-09	1.759427e+01	1.690219e+02
2.240000e-06	3.407480e-09	1.373906e-09	1.668082e+01	1.596693e+02
2.250000e-06	3.219668e-09	1.293554e-09	1.576142e+01	1.502565e+02
2.260000e-06	3.030689e-09	1.212020e-09	1.483629e+01	1.407870e+02
2.270000e-06	2.840589e-09	1.127986e-09	1.390569e+01	1.312644e+02
2.280000e-06	2.649398e-09	1.043077e-09	1.296973e+01	1.216924e+02
2.290000e-06	2.457249e-09	9.548325e-10	1.202909e+01	1.120745e+02
2.300000e-06	2.264210e-09	8.733989e-10	1.108410e+01	1.024145e+02
2.310000e-06	2.070306e-09	7.979017e-10	1.013486e+01	9.271600e+01
2.320000e-06	1.875647e-09	7.226413e-10	9.181939e+00	8.298270e+01
2.330000e-06	1.680338e-09	6.403737e-10	8.225830e+00	7.321830e+01
2.340000e-06	1.484480e-09	5.475635e-10	7.267030e+00	6.342651e+01
2.350000e-06	1.288131e-09	4.565002e-10	6.305832e+00	5.361105e+01
2.360000e-06	1.091319e-09	3.723882e-10	5.342365e+00	4.377567e+01
2.370000e-06	8.940900e-10	2.937710e-10	4.376857e+00	3.392410e+01
2.380000e-06	6.964976e-10	2.138222e-10	3.409570e+00	2.406007e+01
2.390000e-06	4.986499e-10	1.289310e-10	2.441033e+00	1.418736e+01
2.400000e-06	3.006445e-10	4.556052e-11	1.471724e+00	4.309697e+00
2.410000e-06	1.025314e-10	-3.713432e-11	5.018878e-01	-5.569148e+00
2.420000e-06	-9.562824e-11	-1.211452e-10	-4.681759e-01	-1.544542e+01
2.430000e-06	-2.937666e-10	-2.088921e-10	-1.438136e+00	-2.531537e+01
2.440000e-06	-4.917935e-10	-2.962586e-10	-2.407550e+00	-3.517525e+01
2.450000e-06	-6.896331e-10	-3.774169e-10	-3.376047e+00	-4.502129e+01
2.460000e-06	-8.872152e-10	-4.554242e-10	-4.343283e+00	-5.484976e+01
2.470000e-06	-1.084467e-09	-5.346742e-10	-5.308901e+00	-6.465693e+01
2.480000e-06	-1.281313e-09	-6.214343e-10	-6.272537e+00	-7.443906e+01
2.490000e-06	-1.477671e-09	-7.111218e-10	-7.233779e+00	-8.419243e+01
2.500000e-06	-1.673465e-09	-7.958724e-10	-8.192263e+00	-9.391334e+01
2.510000e-06	-1.868605e-09	-8.757650e-10	-9.147546e+00	-1.035981e+02
2.520000e-06	-2.063024e-09	-9.551595e-10	-1.009930e+01	-1.132430e+02
2.530000e-06	-2.256668e-09	-1.036561e-09	-1.104726e+01	-1.228444e+02
2.540000e-06	-2.449443e-09	-1.116826e-09	-1.199096e+01	-1.323986e+02
2.550000e-06	-2.641252e-09	-1.195334e-09	-1.292994e+01	-1.419021e+02
2.560000e-06	-2.832011e-09	-1.274252e-09	-1.386377e+01	-1.513511e+02
2.570000e-06	-3.021648e-09	-1.355713e-09	-1.479211e+01	-1.607421e+02
2.580000e-06	-3.210104e-09	-1.438285e-09	-1.571467e+01	-1.700716e+02
2.590000e-06	-3.397305e-09	-1.517393e-09	-1.663109e+01	-1.793360e+02
2.600000e-06	-3.583176e-09	-1.592507e-09	-1.754100e+01	-1.885317e+02
2.610000e-06	-3.767612e-09	-1.666856e-09	-1.844388e+01	-1.976552e+02
2.620000e-06	-3.950501e-09	-1.744195e-09	-1.933919e+01	-2.067032e+02
2.630000e-06	-4.131759e-09	-1.823989e-09	-2.022651e+01	-2.156721e+02
2.640000e-06	-4.311247e-09	-1.902312e-09	-2.110517e+01	-2.245586e+02
2.650000e-06	-4.488819e-09	-1.978173e-09	-2.197445e+01	-2.333592e+02
2.660000e-06	-4.664474e-09	-2.052671e-09	-2.283434e+01	-2.420706e+02
2.670000e-06	-4.838280e-09	-2.127611e-09	-2.368519e+01	-2.506896e+02
2.680000e-06	-5.010275e-09	-2.202761e-09	-2.452717e+01	-2.592128e+02
2.690000e-06	-5.180512e-09	-2.276517e-09	-2.536054e+01	-2.676370e+02
2.700000e-06	-5.348941e-09	-2.348681e-09	-2.618506e+01	-2.759589e+02
2.710000e-06	-5.515412e-09	-2.420578e-09	-2.700000e+01	-2.841755e+02
2.720000e-06	-5.679809e-09	-2.492822e-09	-2.780478e+01	-2.922836e+02
2.730000e-06	-5.842042e-09	-2.564517e-09	-2.859897e+01	-3.002801e+02
2.740000e-06	-6.002015e-09	-2.634645e-09	-2.938210e+01	-3.081619e+02
2.750000e-06	-6.159635e-09	-2.702464e-09	-3.015370e+01	-3.159262e+02
2.760000e-06	-6.314855e-09	-2.769597e-09	-3.091356e+01	-3.235699e+02
2.770000e-06	-6.467675e-09	-2.837054e-09	-3.166167e+01	-3.310900e+02
2.780000e-06	-6.618050e-09	-2.902757e-09	-3.239781e+01	-3.384839e+02
2.790000e-06	-6.765907e-09	-2.966155e-09	-3.312162e+01	-3.457486e+02
2.800000e-06	-6.911228e-09	-3.027893e-09	-3.383302e+01	-3.528814e+02
2.810000e-06	-7.053875e-09	-3.090777e-09	-3.453133e+01	-3.598795e+02
2.820000e-06	-7.193666e-09	-3.155703e-09	-3.521566e+01	-3.667404e+02
2.830000e-06	-7.330560e-09	-3.219777e-09	-3.588581e+01	-3.734614e+02
2.840000e-06	-7.464575e-09	-3.280092e-09	-3.654186e+01	-3.800399e+02
2.850000e-06	-7.595737e-09	-3.336874e-09	-3.718394e+01	-3.864735e+02
2.860000e-06	-7.724043e-09	-3.393969e-09	-3.781205e+01	-3.927597e+02
2.870000e-06	-7.849415e-09	-3.450963e-09	-3.842579e+01	-3.988961e+02
2.880000e-06	-7.971798e-09	-3.505307e-09	-3.902490e+01	-4.048803e+02
2.890000e-06	-8.091112e-09	-3.556254e-09	-3.960898e+01	-4.107102e+02
2.900000e-06	-8.207189e-09	-3.605422e-09	-4.017722e+01	-4.163835e+02
2.910000e-06	-8.319815e-09	-3.656002e-09	-4.072857e+01	-4.218980e+02
2.920000e-06	-8.429035e-09	-3.708483e-09	-4.126324e+01	-4.272516e+02
2.930000e-06	-8.535120e-09	-3.758668e-09	-4.178256e+01	-4.324423e+02
