# Temperatura_=_20.0
# Concentracion g/m^3_=_10000.0
# C_Vs_to_Am_M_A/Vsm_=_116720831517.84952
# pendiente_HvsI_1/m_=_3716.3
# ordenada_HvsI_A/m_=_1297.0
# frecuencia_Hz_=_239270.29100134523
# Promedio de 25 ciclos

Tiempo_(s)	Campo_(V.s)	Magnetizacion_(V.s)	Campo_(kA/m)	Magnetizacion_(A/m)
0.000000e+00	-6.689736e-09	-2.879325e-09	-3.474572e+01	-3.345294e+02
1.000000e-08	-6.689058e-09	-2.878430e-09	-3.474220e+01	-3.343732e+02
2.000000e-08	-6.686881e-09	-2.877870e-09	-3.473089e+01	-3.341415e+02
3.000000e-08	-6.683126e-09	-2.874653e-09	-3.471138e+01	-3.338343e+02
4.000000e-08	-6.678035e-09	-2.868744e-09	-3.468494e+01	-3.334516e+02
5.000000e-08	-6.671656e-09	-2.862045e-09	-3.465181e+01	-3.329935e+02
6.000000e-08	-6.663939e-09	-2.855721e-09	-3.461173e+01	-3.324603e+02
7.000000e-08	-6.654840e-09	-2.848524e-09	-3.456446e+01	-3.318518e+02
8.000000e-08	-6.644030e-09	-2.842890e-09	-3.450832e+01	-3.311684e+02
9.000000e-08	-6.631220e-09	-2.848446e-09	-3.444179e+01	-3.304102e+02
1.000000e-07	-6.616208e-09	-2.850868e-09	-3.436381e+01	-3.295773e+02
1.100000e-07	-6.599125e-09	-2.829619e-09	-3.427509e+01	-3.286699e+02
1.200000e-07	-6.580762e-09	-2.785390e-09	-3.417971e+01	-3.276882e+02
1.300000e-07	-6.561494e-09	-2.782069e-09	-3.407963e+01	-3.266325e+02
1.400000e-07	-6.541021e-09	-2.816873e-09	-3.397330e+01	-3.255030e+02
1.500000e-07	-6.519261e-09	-2.767226e-09	-3.386028e+01	-3.242999e+02
1.600000e-07	-6.496384e-09	-2.748089e-09	-3.374145e+01	-3.230235e+02
1.700000e-07	-6.471983e-09	-2.788739e-09	-3.361472e+01	-3.216742e+02
1.800000e-07	-6.445601e-09	-2.742449e-09	-3.347769e+01	-3.202521e+02
1.900000e-07	-6.417816e-09	-2.694668e-09	-3.333338e+01	-3.187577e+02
2.000000e-07	-6.389039e-09	-2.727950e-09	-3.318392e+01	-3.171912e+02
2.100000e-07	-6.358834e-09	-2.715566e-09	-3.302703e+01	-3.155531e+02
2.200000e-07	-6.327200e-09	-2.652908e-09	-3.286273e+01	-3.138437e+02
2.300000e-07	-6.294315e-09	-2.669058e-09	-3.269193e+01	-3.120633e+02
2.400000e-07	-6.259807e-09	-2.678744e-09	-3.251270e+01	-3.102124e+02
2.500000e-07	-6.223823e-09	-2.633497e-09	-3.232580e+01	-3.082914e+02
2.600000e-07	-6.186684e-09	-2.614590e-09	-3.213290e+01	-3.063008e+02
2.700000e-07	-6.148043e-09	-2.592183e-09	-3.193221e+01	-3.042409e+02
2.800000e-07	-6.108018e-09	-2.556775e-09	-3.172432e+01	-3.021123e+02
2.900000e-07	-6.066884e-09	-2.569171e-09	-3.151067e+01	-2.999154e+02
3.000000e-07	-6.024191e-09	-2.564184e-09	-3.128893e+01	-2.976507e+02
3.100000e-07	-5.979826e-09	-2.532729e-09	-3.105850e+01	-2.953187e+02
3.200000e-07	-5.934120e-09	-2.504453e-09	-3.082111e+01	-2.929201e+02
3.300000e-07	-5.887148e-09	-2.471162e-09	-3.057714e+01	-2.904552e+02
3.400000e-07	-5.838886e-09	-2.461335e-09	-3.032647e+01	-2.879247e+02
3.500000e-07	-5.789074e-09	-2.445768e-09	-3.006775e+01	-2.853291e+02
3.600000e-07	-5.737487e-09	-2.406901e-09	-2.979982e+01	-2.826691e+02
3.700000e-07	-5.684332e-09	-2.387342e-09	-2.952374e+01	-2.799451e+02
3.800000e-07	-5.629838e-09	-2.386203e-09	-2.924070e+01	-2.771580e+02
3.900000e-07	-5.574165e-09	-2.357035e-09	-2.895154e+01	-2.743081e+02
4.000000e-07	-5.517415e-09	-2.320828e-09	-2.865679e+01	-2.713963e+02
4.100000e-07	-5.459342e-09	-2.284103e-09	-2.835516e+01	-2.684232e+02
4.200000e-07	-5.399821e-09	-2.249492e-09	-2.804602e+01	-2.653894e+02
4.300000e-07	-5.339109e-09	-2.238297e-09	-2.773069e+01	-2.622956e+02
4.400000e-07	-5.277269e-09	-2.226947e-09	-2.740949e+01	-2.591425e+02
4.500000e-07	-5.214263e-09	-2.192386e-09	-2.708225e+01	-2.559309e+02
4.600000e-07	-5.150260e-09	-2.152287e-09	-2.674982e+01	-2.526615e+02
4.700000e-07	-5.085242e-09	-2.125414e-09	-2.641213e+01	-2.493349e+02
4.800000e-07	-5.018845e-09	-2.096331e-09	-2.606727e+01	-2.459521e+02
4.900000e-07	-4.951066e-09	-2.067967e-09	-2.571523e+01	-2.425136e+02
5.000000e-07	-4.882273e-09	-2.035202e-09	-2.535793e+01	-2.390203e+02
5.100000e-07	-4.812539e-09	-2.002555e-09	-2.499573e+01	-2.354730e+02
5.200000e-07	-4.741774e-09	-1.978894e-09	-2.462819e+01	-2.318725e+02
5.300000e-07	-4.670030e-09	-1.953950e-09	-2.425556e+01	-2.282196e+02
5.400000e-07	-4.597381e-09	-1.918280e-09	-2.387823e+01	-2.245151e+02
5.500000e-07	-4.523591e-09	-1.875759e-09	-2.349497e+01	-2.207599e+02
5.600000e-07	-4.448407e-09	-1.837282e-09	-2.310447e+01	-2.169548e+02
5.700000e-07	-4.372044e-09	-1.806026e-09	-2.270785e+01	-2.131007e+02
5.800000e-07	-4.294743e-09	-1.781718e-09	-2.230636e+01	-2.091984e+02
5.900000e-07	-4.216452e-09	-1.749372e-09	-2.189973e+01	-2.052488e+02
6.000000e-07	-4.136971e-09	-1.711119e-09	-2.148691e+01	-2.012529e+02
6.100000e-07	-4.056242e-09	-1.672843e-09	-2.106761e+01	-1.972115e+02
6.200000e-07	-3.974525e-09	-1.637946e-09	-2.064318e+01	-1.931255e+02
6.300000e-07	-3.892020e-09	-1.604063e-09	-2.021466e+01	-1.889958e+02
6.400000e-07	-3.808732e-09	-1.565374e-09	-1.978207e+01	-1.848235e+02
6.500000e-07	-3.724701e-09	-1.524312e-09	-1.934563e+01	-1.806094e+02
6.600000e-07	-3.639996e-09	-1.486001e-09	-1.890567e+01	-1.763544e+02
6.700000e-07	-3.554617e-09	-1.454253e-09	-1.846223e+01	-1.720596e+02
6.800000e-07	-3.468536e-09	-1.418183e-09	-1.801513e+01	-1.677260e+02
6.900000e-07	-3.381704e-09	-1.375007e-09	-1.756414e+01	-1.633544e+02
7.000000e-07	-3.294117e-09	-1.328981e-09	-1.710922e+01	-1.589459e+02
7.100000e-07	-3.205881e-09	-1.289051e-09	-1.665093e+01	-1.545015e+02
7.200000e-07	-3.117061e-09	-1.255252e-09	-1.618961e+01	-1.500221e+02
7.300000e-07	-3.027562e-09	-1.219168e-09	-1.572476e+01	-1.455089e+02
7.400000e-07	-2.937177e-09	-1.175878e-09	-1.525532e+01	-1.409628e+02
7.500000e-07	-2.845841e-09	-1.128908e-09	-1.478093e+01	-1.363848e+02
7.600000e-07	-2.753786e-09	-1.087503e-09	-1.430280e+01	-1.317760e+02
7.700000e-07	-2.661248e-09	-1.049982e-09	-1.382217e+01	-1.271374e+02
7.800000e-07	-2.568272e-09	-1.010888e-09	-1.333926e+01	-1.224701e+02
7.900000e-07	-2.474798e-09	-9.679393e-10	-1.285377e+01	-1.177751e+02
8.000000e-07	-2.380750e-09	-9.272548e-10	-1.236529e+01	-1.130535e+02
8.100000e-07	-2.286136e-09	-8.900380e-10	-1.187388e+01	-1.083064e+02
8.200000e-07	-2.191064e-09	-8.517136e-10	-1.138009e+01	-1.035347e+02
8.300000e-07	-2.095584e-09	-8.087661e-10	-1.088417e+01	-9.873969e+01
8.400000e-07	-1.999684e-09	-7.632230e-10	-1.038608e+01	-9.392233e+01
8.500000e-07	-1.903387e-09	-7.211524e-10	-9.885924e+00	-8.908375e+01
8.600000e-07	-1.806706e-09	-6.840486e-10	-9.383774e+00	-8.422504e+01
8.700000e-07	-1.709643e-09	-6.477718e-10	-8.879639e+00	-7.934729e+01
8.800000e-07	-1.612203e-09	-6.050098e-10	-8.373548e+00	-7.445161e+01
8.900000e-07	-1.514340e-09	-5.579058e-10	-7.865261e+00	-6.953910e+01
9.000000e-07	-1.415955e-09	-5.125163e-10	-7.354261e+00	-6.461087e+01
9.100000e-07	-1.317098e-09	-4.725473e-10	-6.840809e+00	-5.966804e+01
9.200000e-07	-1.217886e-09	-4.339641e-10	-6.325510e+00	-5.471172e+01
9.300000e-07	-1.118358e-09	-3.914703e-10	-5.808572e+00	-4.974303e+01
9.400000e-07	-1.018579e-09	-3.456932e-10	-5.290335e+00	-4.476310e+01
9.500000e-07	-9.185930e-10	-2.997052e-10	-4.771018e+00	-3.977305e+01
9.600000e-07	-8.184267e-10	-2.565282e-10	-4.250765e+00	-3.477401e+01
9.700000e-07	-7.181303e-10	-2.124985e-10	-3.729837e+00	-2.976710e+01
9.800000e-07	-6.177214e-10	-1.653676e-10	-3.208324e+00	-2.475347e+01
9.900000e-07	-5.172053e-10	-1.192548e-10	-2.686254e+00	-1.973424e+01
1.000000e-06	-4.166065e-10	-7.770425e-11	-2.163756e+00	-1.471054e+01
1.010000e-06	-3.159429e-10	-3.790246e-11	-1.640921e+00	-9.683521e+00
1.020000e-06	-2.152223e-10	3.508349e-12	-1.117789e+00	-4.654306e+00
1.030000e-06	-1.144688e-10	4.910711e-11	-5.944864e-01	3.759645e-01
1.040000e-06	-1.369185e-11	9.609958e-11	-7.106264e-02	5.406154e+00
1.050000e-06	8.711316e-11	1.393459e-10	4.525071e-01	1.043513e+01
1.060000e-06	1.879069e-10	1.812619e-10	9.760180e-01	1.546174e+01
1.070000e-06	2.886598e-10	2.250555e-10	1.499317e+00	2.048487e+01
1.080000e-06	3.893646e-10	2.711255e-10	2.022367e+00	2.550338e+01
1.090000e-06	4.899969e-10	3.166038e-10	2.545039e+00	3.051612e+01
1.100000e-06	5.905403e-10	3.593729e-10	3.067250e+00	3.552197e+01
1.110000e-06	6.909872e-10	4.003101e-10	3.588960e+00	4.051980e+01
1.120000e-06	7.913263e-10	4.429232e-10	4.110111e+00	4.550848e+01
1.130000e-06	8.915306e-10	4.876371e-10	4.630560e+00	5.048688e+01
1.140000e-06	9.915733e-10	5.309166e-10	5.150171e+00	5.545388e+01
1.150000e-06	1.091407e-09	5.726500e-10	5.668697e+00	6.040834e+01
1.160000e-06	1.190975e-09	6.134153e-10	6.185840e+00	6.534917e+01
1.170000e-06	1.290209e-09	6.552907e-10	6.701251e+00	7.027522e+01
1.180000e-06	1.389015e-09	6.989827e-10	7.214434e+00	7.518541e+01
1.190000e-06	1.487330e-09	7.410639e-10	7.725073e+00	8.007861e+01
1.200000e-06	1.585131e-09	7.798163e-10	8.233035e+00	8.495371e+01
1.210000e-06	1.682425e-09	8.189472e-10	8.738371e+00	8.980963e+01
1.220000e-06	1.779271e-09	8.609354e-10	9.241376e+00	9.464525e+01
1.230000e-06	1.875715e-09	9.040621e-10	9.742295e+00	9.945949e+01
1.240000e-06	1.971774e-09	9.455162e-10	1.024122e+01	1.042513e+02
1.250000e-06	2.067426e-09	9.829705e-10	1.073802e+01	1.090195e+02
1.260000e-06	2.162631e-09	1.019492e-09	1.123250e+01	1.137631e+02
1.270000e-06	2.257368e-09	1.058983e-09	1.172456e+01	1.184809e+02
1.280000e-06	2.351627e-09	1.100102e-09	1.221413e+01	1.231721e+02
1.290000e-06	2.445399e-09	1.138799e-09	1.270117e+01	1.278354e+02
1.300000e-06	2.538677e-09	1.174153e-09	1.318564e+01	1.324698e+02
1.310000e-06	2.631479e-09	1.209370e-09	1.366765e+01	1.370742e+02
1.320000e-06	2.723826e-09	1.248135e-09	1.414728e+01	1.416477e+02
1.330000e-06	2.815646e-09	1.288621e-09	1.462419e+01	1.461892e+02
1.340000e-06	2.906740e-09	1.325493e-09	1.509732e+01	1.506977e+02
1.350000e-06	2.996915e-09	1.359489e-09	1.556568e+01	1.551721e+02
1.360000e-06	3.086189e-09	1.394560e-09	1.602936e+01	1.596115e+02
1.370000e-06	3.174754e-09	1.431393e-09	1.648935e+01	1.640148e+02
1.380000e-06	3.262725e-09	1.467660e-09	1.694626e+01	1.683810e+02
1.390000e-06	3.350082e-09	1.500827e-09	1.739999e+01	1.727092e+02
1.400000e-06	3.436741e-09	1.531273e-09	1.785008e+01	1.769984e+02
1.410000e-06	3.522651e-09	1.563737e-09	1.829628e+01	1.812476e+02
1.420000e-06	3.607843e-09	1.599564e-09	1.873876e+01	1.854558e+02
1.430000e-06	3.692388e-09	1.634759e-09	1.917788e+01	1.896221e+02
1.440000e-06	3.776275e-09	1.668172e-09	1.961358e+01	1.937456e+02
1.450000e-06	3.859330e-09	1.700598e-09	2.004496e+01	1.978253e+02
1.460000e-06	3.941418e-09	1.732994e-09	2.047131e+01	2.018603e+02
1.470000e-06	4.022601e-09	1.765362e-09	2.089297e+01	2.058497e+02
1.480000e-06	4.102895e-09	1.796160e-09	2.131000e+01	2.097926e+02
1.490000e-06	4.182212e-09	1.825338e-09	2.172197e+01	2.136881e+02
1.500000e-06	4.260526e-09	1.855228e-09	2.212872e+01	2.175353e+02
1.510000e-06	4.337892e-09	1.886689e-09	2.253055e+01	2.213334e+02
1.520000e-06	4.414322e-09	1.918364e-09	2.292752e+01	2.250814e+02
1.530000e-06	4.489631e-09	1.948314e-09	2.331867e+01	2.287786e+02
1.540000e-06	4.563611e-09	1.975880e-09	2.370291e+01	2.324241e+02
1.550000e-06	4.636384e-09	2.002733e-09	2.408088e+01	2.360171e+02
1.560000e-06	4.708169e-09	2.030768e-09	2.445373e+01	2.395567e+02
1.570000e-06	4.778949e-09	2.058540e-09	2.482134e+01	2.430422e+02
1.580000e-06	4.848661e-09	2.084500e-09	2.518342e+01	2.464728e+02
1.590000e-06	4.917388e-09	2.109719e-09	2.554038e+01	2.498478e+02
1.600000e-06	4.985107e-09	2.135087e-09	2.589211e+01	2.531662e+02
1.610000e-06	5.051532e-09	2.160884e-09	2.623711e+01	2.564275e+02
1.620000e-06	5.116624e-09	2.186463e-09	2.657519e+01	2.596308e+02
1.630000e-06	5.180616e-09	2.211130e-09	2.690755e+01	2.627755e+02
1.640000e-06	5.243562e-09	2.235386e-09	2.723449e+01	2.658607e+02
1.650000e-06	5.305417e-09	2.260481e-09	2.755575e+01	2.688859e+02
1.660000e-06	5.366254e-09	2.285566e-09	2.787174e+01	2.718504e+02
1.670000e-06	5.426057e-09	2.308233e-09	2.818234e+01	2.747534e+02
1.680000e-06	5.484496e-09	2.327957e-09	2.848587e+01	2.775944e+02
1.690000e-06	5.541475e-09	2.346974e-09	2.878181e+01	2.803726e+02
1.700000e-06	5.597236e-09	2.367792e-09	2.907142e+01	2.830875e+02
1.710000e-06	5.651831e-09	2.390425e-09	2.935498e+01	2.857384e+02
1.720000e-06	5.705153e-09	2.412743e-09	2.963193e+01	2.883247e+02
1.730000e-06	5.757020e-09	2.432862e-09	2.990132e+01	2.908459e+02
1.740000e-06	5.807241e-09	2.451009e-09	3.016217e+01	2.933014e+02
1.750000e-06	5.855953e-09	2.468659e-09	3.041517e+01	2.956906e+02
1.760000e-06	5.903394e-09	2.485758e-09	3.066157e+01	2.980130e+02
1.770000e-06	5.949603e-09	2.502025e-09	3.090158e+01	3.002681e+02
1.780000e-06	5.994636e-09	2.518846e-09	3.113547e+01	3.024553e+02
1.790000e-06	6.038457e-09	2.536552e-09	3.136307e+01	3.045741e+02
1.800000e-06	6.080781e-09	2.555220e-09	3.158289e+01	3.066242e+02
1.810000e-06	6.121596e-09	2.573167e-09	3.179488e+01	3.086050e+02
1.820000e-06	6.161117e-09	2.588324e-09	3.200015e+01	3.105160e+02
1.830000e-06	6.199347e-09	2.600682e-09	3.219871e+01	3.123569e+02
1.840000e-06	6.236322e-09	2.612310e-09	3.239076e+01	3.141272e+02
1.850000e-06	6.271985e-09	2.626374e-09	3.257598e+01	3.158265e+02
1.860000e-06	6.306084e-09	2.642386e-09	3.275309e+01	3.174544e+02
1.870000e-06	6.338682e-09	2.657255e-09	3.292240e+01	3.190107e+02
1.880000e-06	6.369964e-09	2.669077e-09	3.308487e+01	3.204948e+02
1.890000e-06	6.399923e-09	2.679107e-09	3.324047e+01	3.219065e+02
1.900000e-06	6.428587e-09	2.689207e-09	3.338935e+01	3.232455e+02
1.910000e-06	6.455777e-09	2.699454e-09	3.353057e+01	3.245115e+02
1.920000e-06	6.481281e-09	2.708981e-09	3.366304e+01	3.257041e+02
1.930000e-06	6.505248e-09	2.717229e-09	3.378752e+01	3.268231e+02
1.940000e-06	6.527826e-09	2.725661e-09	3.390479e+01	3.278683e+02
1.950000e-06	6.549101e-09	2.735657e-09	3.401528e+01	3.288394e+02
1.960000e-06	6.569121e-09	2.745905e-09	3.411926e+01	3.297362e+02
1.970000e-06	6.587696e-09	2.754014e-09	3.421574e+01	3.305585e+02
1.980000e-06	6.604697e-09	2.759397e-09	3.430404e+01	3.313061e+02
1.990000e-06	6.620131e-09	2.764466e-09	3.438420e+01	3.319789e+02
2.000000e-06	6.634024e-09	2.770992e-09	3.445636e+01	3.325766e+02
2.010000e-06	6.646362e-09	2.777617e-09	3.452044e+01	3.330992e+02
2.020000e-06	6.656960e-09	2.782998e-09	3.457549e+01	3.335465e+02
2.030000e-06	6.665868e-09	2.787564e-09	3.462175e+01	3.339185e+02
2.040000e-06	6.673331e-09	2.792125e-09	3.466051e+01	3.342150e+02
2.050000e-06	6.679404e-09	2.796321e-09	3.469206e+01	3.344359e+02
2.060000e-06	6.684151e-09	2.799014e-09	3.471671e+01	3.345814e+02
2.070000e-06	6.687444e-09	2.800200e-09	3.473381e+01	3.346512e+02
2.080000e-06	6.689070e-09	2.800122e-09	3.474226e+01	3.346454e+02
2.090000e-06	6.689194e-09	2.799843e-09	3.474290e+01	3.345640e+02
2.100000e-06	6.687989e-09	2.799782e-09	3.473664e+01	3.344070e+02
2.110000e-06	6.685490e-09	2.798640e-09	3.472366e+01	3.341744e+02
2.120000e-06	6.681724e-09	2.796738e-09	3.470410e+01	3.338663e+02
2.130000e-06	6.676434e-09	2.794496e-09	3.467662e+01	3.334828e+02
2.140000e-06	6.669551e-09	2.791750e-09	3.464087e+01	3.330239e+02
2.150000e-06	6.661359e-09	2.788789e-09	3.459832e+01	3.324898e+02
2.160000e-06	6.651929e-09	2.788466e-09	3.454935e+01	3.318805e+02
2.170000e-06	6.641096e-09	2.774439e-09	3.449308e+01	3.311963e+02
2.180000e-06	6.628395e-09	2.750504e-09	3.442711e+01	3.304372e+02
2.190000e-06	6.613278e-09	2.740447e-09	3.434859e+01	3.296035e+02
2.200000e-06	6.595876e-09	2.778451e-09	3.425821e+01	3.286953e+02
2.210000e-06	6.577285e-09	2.788078e-09	3.416165e+01	3.277128e+02
2.220000e-06	6.558383e-09	2.737502e-09	3.406348e+01	3.266563e+02
2.230000e-06	6.538426e-09	2.729493e-09	3.395982e+01	3.255259e+02
2.240000e-06	6.516396e-09	2.748643e-09	3.384540e+01	3.243220e+02
2.250000e-06	6.492956e-09	2.701139e-09	3.372365e+01	3.230449e+02
2.260000e-06	6.468629e-09	2.665809e-09	3.359730e+01	3.216947e+02
2.270000e-06	6.442601e-09	2.736707e-09	3.346211e+01	3.202718e+02
2.280000e-06	6.415020e-09	2.724657e-09	3.331886e+01	3.187766e+02
2.290000e-06	6.386489e-09	2.660734e-09	3.317067e+01	3.172094e+02
2.300000e-06	6.356226e-09	2.722282e-09	3.301349e+01	3.155704e+02
2.310000e-06	6.324067e-09	2.727228e-09	3.284645e+01	3.138602e+02
2.320000e-06	6.290833e-09	2.647325e-09	3.267384e+01	3.120790e+02
2.330000e-06	6.256343e-09	2.660630e-09	3.249470e+01	3.102274e+02
2.340000e-06	6.220244e-09	2.660380e-09	3.230721e+01	3.083056e+02
2.350000e-06	6.182787e-09	2.629252e-09	3.211266e+01	3.063142e+02
2.360000e-06	6.143824e-09	2.649730e-09	3.191029e+01	3.042536e+02
2.370000e-06	6.103286e-09	2.621872e-09	3.169974e+01	3.021242e+02
2.380000e-06	6.061541e-09	2.568309e-09	3.148292e+01	2.999265e+02
2.390000e-06	6.018629e-09	2.560837e-09	3.126004e+01	2.976611e+02
2.400000e-06	5.974514e-09	2.536634e-09	3.103091e+01	2.953284e+02
2.410000e-06	5.929007e-09	2.529790e-09	3.079455e+01	2.929290e+02
2.420000e-06	5.881806e-09	2.532486e-09	3.054939e+01	2.904634e+02
2.430000e-06	5.833195e-09	2.479595e-09	3.029692e+01	2.879322e+02
2.440000e-06	5.783388e-09	2.469890e-09	3.003822e+01	2.853359e+02
2.450000e-06	5.732181e-09	2.467791e-09	2.977226e+01	2.826751e+02
2.460000e-06	5.679527e-09	2.417392e-09	2.949878e+01	2.799505e+02
2.470000e-06	5.625333e-09	2.397484e-09	2.921730e+01	2.771626e+02
2.480000e-06	5.569643e-09	2.380448e-09	2.892806e+01	2.743121e+02
2.490000e-06	5.512761e-09	2.353932e-09	2.863262e+01	2.713996e+02
2.500000e-06	5.454756e-09	2.347330e-09	2.833134e+01	2.684258e+02
2.510000e-06	5.395669e-09	2.321782e-09	2.802445e+01	2.653913e+02
2.520000e-06	5.335409e-09	2.280523e-09	2.771147e+01	2.622969e+02
2.530000e-06	5.273712e-09	2.248591e-09	2.739102e+01	2.591432e+02
2.540000e-06	5.210703e-09	2.223151e-09	2.706376e+01	2.559309e+02
2.550000e-06	5.146593e-09	2.206069e-09	2.673078e+01	2.526608e+02
2.560000e-06	5.081389e-09	2.179879e-09	2.639212e+01	2.493337e+02
2.570000e-06	5.015092e-09	2.150267e-09	2.604778e+01	2.459502e+02
2.580000e-06	4.947782e-09	2.119753e-09	2.569817e+01	2.425111e+02
2.590000e-06	4.879337e-09	2.089609e-09	2.534268e+01	2.390172e+02
2.600000e-06	4.809491e-09	2.063609e-09	2.497990e+01	2.354693e+02
2.610000e-06	4.738468e-09	2.026426e-09	2.461102e+01	2.318682e+02
2.620000e-06	4.666532e-09	1.997874e-09	2.423739e+01	2.282147e+02
2.630000e-06	4.593610e-09	1.970757e-09	2.385864e+01	2.245097e+02
2.640000e-06	4.519680e-09	1.941593e-09	2.347466e+01	2.207539e+02
2.650000e-06	4.444696e-09	1.916382e-09	2.308520e+01	2.169483e+02
2.660000e-06	4.368597e-09	1.877191e-09	2.268995e+01	2.130936e+02
2.670000e-06	4.291235e-09	1.838571e-09	2.228814e+01	2.091908e+02
2.680000e-06	4.212634e-09	1.806990e-09	2.187990e+01	2.052407e+02
2.690000e-06	4.133117e-09	1.777470e-09	2.146689e+01	2.012443e+02
2.700000e-06	4.052769e-09	1.751221e-09	2.104958e+01	1.972023e+02
2.710000e-06	3.971550e-09	1.715732e-09	2.062773e+01	1.931158e+02
2.720000e-06	3.889474e-09	1.675653e-09	2.020144e+01	1.889857e+02
2.730000e-06	3.806619e-09	1.640670e-09	1.977109e+01	1.848129e+02
2.740000e-06	3.723091e-09	1.606985e-09	1.933726e+01	1.805983e+02
2.750000e-06	3.638677e-09	1.573349e-09	1.889882e+01	1.763429e+02
2.760000e-06	3.553148e-09	1.534297e-09	1.845460e+01	1.720477e+02
2.770000e-06	3.466628e-09	1.497063e-09	1.800522e+01	1.677136e+02
2.780000e-06	3.379349e-09	1.463150e-09	1.755191e+01	1.633416e+02
2.790000e-06	3.291412e-09	1.428552e-09	1.709517e+01	1.589327e+02
2.800000e-06	3.202776e-09	1.391332e-09	1.663480e+01	1.544879e+02
2.810000e-06	3.113480e-09	1.347726e-09	1.617101e+01	1.500082e+02
2.820000e-06	3.023528e-09	1.309132e-09	1.570381e+01	1.454946e+02
2.830000e-06	2.932932e-09	1.274255e-09	1.523327e+01	1.409481e+02
2.840000e-06	2.841840e-09	1.239271e-09	1.476014e+01	1.363698e+02
2.850000e-06	2.750298e-09	1.201469e-09	1.428468e+01	1.317607e+02
2.860000e-06	2.658177e-09	1.159204e-09	1.380621e+01	1.271218e+02
2.870000e-06	2.565233e-09	1.119597e-09	1.332348e+01	1.224541e+02
2.880000e-06	2.471427e-09	1.081632e-09	1.283626e+01	1.177588e+02
2.890000e-06	2.376946e-09	1.043829e-09	1.234554e+01	1.130369e+02
2.900000e-06	2.281950e-09	1.005509e-09	1.185214e+01	1.082895e+02
2.910000e-06	2.186569e-09	9.672967e-10	1.135674e+01	1.035176e+02
2.920000e-06	2.090812e-09	9.293193e-10	1.085939e+01	9.872230e+01
2.930000e-06	1.994649e-09	8.894076e-10	1.035993e+01	9.390470e+01
2.940000e-06	1.898065e-09	8.468856e-10	9.858283e+00	8.906589e+01
2.950000e-06	1.801028e-09	8.018581e-10	9.354279e+00	8.420696e+01
